2022-09-18 22:47:12.000000,-0.0
2022-09-18 22:47:12.015625,-0.0
2022-09-18 22:47:12.031250,-0.0
2022-09-18 22:47:12.046875,-0.0
2022-09-18 22:47:12.062500,-0.0
2022-09-18 22:47:12.078125,-0.0
2022-09-18 22:47:12.093750,-0.0
2022-09-18 22:47:12.109375,-0.0
2022-09-18 22:47:12.125000,-0.0
2022-09-18 22:47:12.140625,-0.0
2022-09-18 22:47:12.156250,0.0
2022-09-18 22:47:12.171875,0.01
2022-09-18 22:47:12.187500,0.01
2022-09-18 22:47:12.203125,-0.0
2022-09-18 22:47:12.218750,-0.03
2022-09-18 22:47:12.234375,-0.05
2022-09-18 22:47:12.250000,-0.05
2022-09-18 22:47:12.265625,0.0
2022-09-18 22:47:12.281250,0.13
2022-09-18 22:47:12.296875,0.36
2022-09-18 22:47:12.312500,0.66
2022-09-18 22:47:12.328125,1.01
2022-09-18 22:47:12.343750,1.37
2022-09-18 22:47:12.359375,1.72
2022-09-18 22:47:12.375000,2.06
2022-09-18 22:47:12.390625,2.4
2022-09-18 22:47:12.406250,2.79
2022-09-18 22:47:12.421875,3.24
2022-09-18 22:47:12.437500,3.8
2022-09-18 22:47:12.453125,4.42
2022-09-18 22:47:12.468750,5.06
2022-09-18 22:47:12.484375,5.66
2022-09-18 22:47:12.500000,6.2
2022-09-18 22:47:12.515625,6.68
2022-09-18 22:47:12.531250,7.15
2022-09-18 22:47:12.546875,7.68
2022-09-18 22:47:12.562500,8.31
2022-09-18 22:47:12.578125,9.14
2022-09-18 22:47:12.593750,10.09
2022-09-18 22:47:12.609375,11.04
2022-09-18 22:47:12.625000,11.88
2022-09-18 22:47:12.640625,12.56
2022-09-18 22:47:12.656250,13.14
2022-09-18 22:47:12.671875,13.76
2022-09-18 22:47:12.687500,14.65
2022-09-18 22:47:12.703125,15.96
2022-09-18 22:47:12.718750,17.91
2022-09-18 22:47:12.734375,20.32
2022-09-18 22:47:12.750000,22.9
2022-09-18 22:47:12.765625,25.38
2022-09-18 22:47:12.781250,27.58
2022-09-18 22:47:12.796875,29.57
2022-09-18 22:47:12.812500,31.68
2022-09-18 22:47:12.828125,34.32
2022-09-18 22:47:12.843750,37.81
2022-09-18 22:47:12.859375,42.54
2022-09-18 22:47:12.875000,48.15
2022-09-18 22:47:12.890625,54.1
2022-09-18 22:47:12.906250,59.83
2022-09-18 22:47:12.921875,64.97
2022-09-18 22:47:12.937500,69.59
2022-09-18 22:47:12.953125,74.15
2022-09-18 22:47:12.968750,79.35
2022-09-18 22:47:12.984375,85.7
2022-09-18 22:47:13.000000,93.76
2022-09-18 22:47:13.015625,102.99
2022-09-18 22:47:13.031250,112.62
2022-09-18 22:47:13.046875,121.76
2022-09-18 22:47:13.062500,129.81
2022-09-18 22:47:13.078125,136.8
2022-09-18 22:47:13.093750,143.32
2022-09-18 22:47:13.109375,150.68
2022-09-18 22:47:13.125000,157.59
2022-09-18 22:47:13.140625,166.32
2022-09-18 22:47:13.156250,177.5
2022-09-18 22:47:13.171875,191.25
2022-09-18 22:47:13.187500,206.39
2022-09-18 22:47:13.203125,219.99
2022-09-18 22:47:13.218750,227.68
2022-09-18 22:47:13.234375,224.78
2022-09-18 22:47:13.250000,207.89
2022-09-18 22:47:13.265625,176.13
2022-09-18 22:47:13.281250,131.9
2022-09-18 22:47:13.296875,79.07
2022-09-18 22:47:13.312500,22.03
2022-09-18 22:47:13.328125,-35.98
2022-09-18 22:47:13.343750,-93.43
2022-09-18 22:47:13.359375,-150.12
2022-09-18 22:47:13.375000,-206.24
2022-09-18 22:47:13.390625,-261.54
2022-09-18 22:47:13.406250,-315.19
2022-09-18 22:47:13.421875,-365.64
2022-09-18 22:47:13.437500,-411.88
2022-09-18 22:47:13.453125,-453.1
2022-09-18 22:47:13.468750,-488.69
2022-09-18 22:47:13.484375,-517.83
2022-09-18 22:47:13.500000,-539.26
2022-09-18 22:47:13.515625,-551.41
2022-09-18 22:47:13.531250,-552.61
2022-09-18 22:47:13.546875,-541.76
2022-09-18 22:47:13.562500,-518.49
2022-09-18 22:47:13.578125,-483.75
2022-09-18 22:47:13.593750,-439.45
2022-09-18 22:47:13.609375,-388.12
2022-09-18 22:47:13.625000,-332.53
2022-09-18 22:47:13.640625,-275.24
2022-09-18 22:47:13.656250,-218.3
2022-09-18 22:47:13.671875,-163.22
2022-09-18 22:47:13.687500,-110.99
2022-09-18 22:47:13.703125,-62.18
2022-09-18 22:47:13.718750,-17.33
2022-09-18 22:47:13.734375,23.12
2022-09-18 22:47:13.750000,58.67
2022-09-18 22:47:13.765625,88.83
2022-09-18 22:47:13.781250,113.24
2022-09-18 22:47:13.796875,131.8
2022-09-18 22:47:13.812500,144.84
2022-09-18 22:47:13.828125,153.07
2022-09-18 22:47:13.843750,157.58
2022-09-18 22:47:13.859375,159.42
2022-09-18 22:47:13.875000,159.48
2022-09-18 22:47:13.890625,158.26
2022-09-18 22:47:13.906250,155.84
2022-09-18 22:47:13.921875,152.03
2022-09-18 22:47:13.937500,146.6
2022-09-18 22:47:13.953125,139.36
2022-09-18 22:47:13.968750,130.2
2022-09-18 22:47:13.984375,119.14
2022-09-18 22:47:14.000000,106.55
2022-09-18 22:47:14.015625,93.53
2022-09-18 22:47:14.031250,82.07
2022-09-18 22:47:14.046875,74.69
2022-09-18 22:47:14.062500,73.58
2022-09-18 22:47:14.078125,79.52
2022-09-18 22:47:14.093750,91.22
2022-09-18 22:47:14.109375,105.53
2022-09-18 22:47:14.125000,118.56
2022-09-18 22:47:14.140625,127.11
2022-09-18 22:47:14.156250,129.75
2022-09-18 22:47:14.171875,126.98
2022-09-18 22:47:14.187500,120.51
2022-09-18 22:47:14.203125,112.13
2022-09-18 22:47:14.218750,103.03
2022-09-18 22:47:14.234375,93.6
2022-09-18 22:47:14.250000,83.92
2022-09-18 22:47:14.265625,74.34
2022-09-18 22:47:14.281250,65.36
2022-09-18 22:47:14.296875,57.61
2022-09-18 22:47:14.312500,51.46
2022-09-18 22:47:14.328125,46.77
2022-09-18 22:47:14.343750,42.93
2022-09-18 22:47:14.359375,39.08
2022-09-18 22:47:14.375000,34.6
2022-09-18 22:47:14.390625,29.38
2022-09-18 22:47:14.406250,23.84
2022-09-18 22:47:14.421875,18.71
2022-09-18 22:47:14.437500,14.67
2022-09-18 22:47:14.453125,12.08
2022-09-18 22:47:14.468750,10.76
2022-09-18 22:47:14.484375,10.12
2022-09-18 22:47:14.500000,9.43
2022-09-18 22:47:14.515625,8.18
2022-09-18 22:47:14.531250,6.28
2022-09-18 22:47:14.546875,4.12
2022-09-18 22:47:14.562500,2.29
2022-09-18 22:47:14.578125,1.39
2022-09-18 22:47:14.593750,1.63
2022-09-18 22:47:14.609375,2.79
2022-09-18 22:47:14.625000,4.3
2022-09-18 22:47:14.640625,5.5
2022-09-18 22:47:14.656250,5.89
2022-09-18 22:47:14.671875,5.32
2022-09-18 22:47:14.687500,3.95
2022-09-18 22:47:14.703125,2.12
2022-09-18 22:47:14.718750,0.17
2022-09-18 22:47:14.734375,-1.58
2022-09-18 22:47:14.750000,-2.93
2022-09-18 22:47:14.765625,-3.71
2022-09-18 22:47:14.781250,-3.83
2022-09-18 22:47:14.796875,-3.34
2022-09-18 22:47:14.812500,-2.48
2022-09-18 22:47:14.828125,-1.62
2022-09-18 22:47:14.843750,-1.21
2022-09-18 22:47:14.859375,-1.48
2022-09-18 22:47:14.875000,-2.39
2022-09-18 22:47:14.890625,-3.6
2022-09-18 22:47:14.906250,-4.68
2022-09-18 22:47:14.921875,-5.27
2022-09-18 22:47:14.937500,-5.3
2022-09-18 22:47:14.953125,-4.94
2022-09-18 22:47:14.968750,-4.5
2022-09-18 22:47:14.984375,-4.21
2022-09-18 22:47:15.000000,-4.15
2022-09-18 22:47:15.015625,-4.23
2022-09-18 22:47:15.031250,-4.31
2022-09-18 22:47:15.046875,-4.29
2022-09-18 22:47:15.062500,-4.18
2022-09-18 22:47:15.078125,-4.05
2022-09-18 22:47:15.093750,-3.97
2022-09-18 22:47:15.109375,-3.95
2022-09-18 22:47:15.125000,-3.95
2022-09-18 22:47:15.140625,-3.88
2022-09-18 22:47:15.156250,-3.75
2022-09-18 22:47:15.171875,-3.57
2022-09-18 22:47:15.187500,-3.41
2022-09-18 22:47:15.203125,-3.32
2022-09-18 22:47:15.218750,-3.28
2022-09-18 22:47:15.234375,-3.23
2022-09-18 22:47:15.250000,-3.1
2022-09-18 22:47:15.265625,-2.87
2022-09-18 22:47:15.281250,-2.59
2022-09-18 22:47:15.296875,-2.38
2022-09-18 22:47:15.312500,-2.34
2022-09-18 22:47:15.328125,-2.5
2022-09-18 22:47:15.343750,-2.79
2022-09-18 22:47:15.359375,-3.0
2022-09-18 22:47:15.375000,-2.88
2022-09-18 22:47:15.390625,-2.24
2022-09-18 22:47:15.406250,-0.98
2022-09-18 22:47:15.421875,0.83
2022-09-18 22:47:15.437500,3.02
2022-09-18 22:47:15.453125,5.35
2022-09-18 22:47:15.468750,7.57
2022-09-18 22:47:15.484375,9.46
2022-09-18 22:47:15.500000,10.89
2022-09-18 22:47:15.515625,11.81
2022-09-18 22:47:15.531250,12.28
2022-09-18 22:47:15.546875,12.38
2022-09-18 22:47:15.562500,12.24
2022-09-18 22:47:15.578125,11.95
2022-09-18 22:47:15.593750,11.56
2022-09-18 22:47:15.609375,11.05
2022-09-18 22:47:15.625000,10.36
2022-09-18 22:47:15.640625,9.45
2022-09-18 22:47:15.656250,8.32
2022-09-18 22:47:15.671875,7.01
2022-09-18 22:47:15.687500,5.56
2022-09-18 22:47:15.703125,4.05
2022-09-18 22:47:15.718750,2.4
2022-09-18 22:47:15.734375,0.58
2022-09-18 22:47:15.750000,-1.39
2022-09-18 22:47:15.765625,-3.44
2022-09-18 22:47:15.781250,-5.42
2022-09-18 22:47:15.796875,-7.15
2022-09-18 22:47:15.812500,-8.55
2022-09-18 22:47:15.828125,-9.59
2022-09-18 22:47:15.843750,-10.34
2022-09-18 22:47:15.859375,-10.93
2022-09-18 22:47:15.875000,-11.46
2022-09-18 22:47:15.890625,-11.95
2022-09-18 22:47:15.906250,-12.36
2022-09-18 22:47:15.921875,-12.59
2022-09-18 22:47:15.937500,-12.54
2022-09-18 22:47:15.953125,-12.19
2022-09-18 22:47:15.968750,-11.55
2022-09-18 22:47:15.984375,-10.75
2022-09-18 22:47:16.000000,-9.92
2022-09-18 22:47:16.015625,-9.18
2022-09-18 22:47:16.031250,-8.61
2022-09-18 22:47:16.046875,-8.18
2022-09-18 22:47:16.062500,-7.87
2022-09-18 22:47:16.078125,-7.64
2022-09-18 22:47:16.093750,-7.45
2022-09-18 22:47:16.109375,-7.3
2022-09-18 22:47:16.125000,-7.17
2022-09-18 22:47:16.140625,-6.95
2022-09-18 22:47:16.156250,-6.5
2022-09-18 22:47:16.171875,-5.68
2022-09-18 22:47:16.187500,-4.38
2022-09-18 22:47:16.203125,-2.61
2022-09-18 22:47:16.218750,-0.47
2022-09-18 22:47:16.234375,1.88
2022-09-18 22:47:16.250000,4.23
2022-09-18 22:47:16.265625,6.37
2022-09-18 22:47:16.281250,8.15
2022-09-18 22:47:16.296875,9.39
2022-09-18 22:47:16.312500,10.03
2022-09-18 22:47:16.328125,10.05
2022-09-18 22:47:16.343750,9.5
2022-09-18 22:47:16.359375,8.49
2022-09-18 22:47:16.375000,7.18
2022-09-18 22:47:16.390625,5.74
2022-09-18 22:47:16.406250,4.34
2022-09-18 22:47:16.421875,3.11
2022-09-18 22:47:16.437500,2.17
2022-09-18 22:47:16.453125,1.54
2022-09-18 22:47:16.468750,1.2
2022-09-18 22:47:16.484375,1.04
2022-09-18 22:47:16.500000,0.95
2022-09-18 22:47:16.515625,0.86
2022-09-18 22:47:16.531250,0.76
2022-09-18 22:47:16.546875,0.69
2022-09-18 22:47:16.562500,0.73
2022-09-18 22:47:16.578125,0.88
2022-09-18 22:47:16.593750,1.1
2022-09-18 22:47:16.609375,1.3
2022-09-18 22:47:16.625000,1.36
2022-09-18 22:47:16.640625,1.25
2022-09-18 22:47:16.656250,0.97
2022-09-18 22:47:16.671875,0.56
2022-09-18 22:47:16.687500,0.08
2022-09-18 22:47:16.703125,-0.43
2022-09-18 22:47:16.718750,-0.95
2022-09-18 22:47:16.734375,-1.52
2022-09-18 22:47:16.750000,-2.17
2022-09-18 22:47:16.765625,-2.93
2022-09-18 22:47:16.781250,-3.78
2022-09-18 22:47:16.796875,-4.69
2022-09-18 22:47:16.812500,-5.6
2022-09-18 22:47:16.828125,-6.47
2022-09-18 22:47:16.843750,-7.3
2022-09-18 22:47:16.859375,-8.09
2022-09-18 22:47:16.875000,-8.85
2022-09-18 22:47:16.890625,-9.55
2022-09-18 22:47:16.906250,-10.2
2022-09-18 22:47:16.921875,-10.86
2022-09-18 22:47:16.937500,-11.66
2022-09-18 22:47:16.953125,-12.78
2022-09-18 22:47:16.968750,-14.27
2022-09-18 22:47:16.984375,-16.02
2022-09-18 22:47:17.000000,-17.62
2022-09-18 22:47:17.015625,-18.55
2022-09-18 22:47:17.031250,-18.31
2022-09-18 22:47:17.046875,-16.64
2022-09-18 22:47:17.062500,-13.63
2022-09-18 22:47:17.078125,-9.68
2022-09-18 22:47:17.093750,-5.31
2022-09-18 22:47:17.109375,-1.0
2022-09-18 22:47:17.125000,2.99
2022-09-18 22:47:17.140625,6.55
2022-09-18 22:47:17.156250,9.64
2022-09-18 22:47:17.171875,12.23
2022-09-18 22:47:17.187500,14.26
2022-09-18 22:47:17.203125,15.67
2022-09-18 22:47:17.218750,16.41
2022-09-18 22:47:17.234375,16.55
2022-09-18 22:47:17.250000,16.23
2022-09-18 22:47:17.265625,15.61
2022-09-18 22:47:17.281250,14.84
2022-09-18 22:47:17.296875,14.02
2022-09-18 22:47:17.312500,13.19
2022-09-18 22:47:17.328125,12.37
2022-09-18 22:47:17.343750,11.58
2022-09-18 22:47:17.359375,10.85
2022-09-18 22:47:17.375000,10.2
2022-09-18 22:47:17.390625,9.7
2022-09-18 22:47:17.406250,9.34
2022-09-18 22:47:17.421875,9.13
2022-09-18 22:47:17.437500,9.03
2022-09-18 22:47:17.453125,8.95
2022-09-18 22:47:17.468750,8.77
2022-09-18 22:47:17.484375,8.37
2022-09-18 22:47:17.500000,7.63
2022-09-18 22:47:17.515625,6.55
2022-09-18 22:47:17.531250,5.2
2022-09-18 22:47:17.546875,3.74
2022-09-18 22:47:17.562500,2.37
2022-09-18 22:47:17.578125,1.2
2022-09-18 22:47:17.593750,0.25
2022-09-18 22:47:17.609375,-0.57
2022-09-18 22:47:17.625000,-1.42
2022-09-18 22:47:17.640625,-2.42
2022-09-18 22:47:17.656250,-3.58
2022-09-18 22:47:17.671875,-4.88
2022-09-18 22:47:17.687500,-6.22
2022-09-18 22:47:17.703125,-7.58
2022-09-18 22:47:17.718750,-8.93
2022-09-18 22:47:17.734375,-10.3
2022-09-18 22:47:17.750000,-11.69
2022-09-18 22:47:17.765625,-13.09
2022-09-18 22:47:17.781250,-14.51
2022-09-18 22:47:17.796875,-15.98
2022-09-18 22:47:17.812500,-17.6
2022-09-18 22:47:17.828125,-19.43
2022-09-18 22:47:17.843750,-21.41
2022-09-18 22:47:17.859375,-23.35
2022-09-18 22:47:17.875000,-24.9
2022-09-18 22:47:17.890625,-25.63
2022-09-18 22:47:17.906250,-25.24
2022-09-18 22:47:17.921875,-23.59
2022-09-18 22:47:17.937500,-20.76
2022-09-18 22:47:17.953125,-17.04
2022-09-18 22:47:17.968750,-12.81
2022-09-18 22:47:17.984375,-8.45
2022-09-18 22:47:18.000000,-4.27
2022-09-18 22:47:18.015625,-0.47
2022-09-18 22:47:18.031250,2.82
2022-09-18 22:47:18.046875,5.51
2022-09-18 22:47:18.062500,7.5
2022-09-18 22:47:18.078125,8.71
2022-09-18 22:47:18.093750,9.14
2022-09-18 22:47:18.109375,8.88
2022-09-18 22:47:18.125000,8.16
2022-09-18 22:47:18.140625,7.33
2022-09-18 22:47:18.156250,6.76
2022-09-18 22:47:18.171875,6.73
2022-09-18 22:47:18.187500,7.35
2022-09-18 22:47:18.203125,8.55
2022-09-18 22:47:18.218750,10.12
2022-09-18 22:47:18.234375,11.88
2022-09-18 22:47:18.250000,13.69
2022-09-18 22:47:18.265625,15.44
2022-09-18 22:47:18.281250,17.05
2022-09-18 22:47:18.296875,18.37
2022-09-18 22:47:18.312500,19.19
2022-09-18 22:47:18.328125,19.33
2022-09-18 22:47:18.343750,18.69
2022-09-18 22:47:18.359375,17.34
2022-09-18 22:47:18.375000,15.52
2022-09-18 22:47:18.390625,13.54
2022-09-18 22:47:18.406250,11.63
2022-09-18 22:47:18.421875,9.9
2022-09-18 22:47:18.437500,8.29
2022-09-18 22:47:18.453125,6.69
2022-09-18 22:47:18.468750,4.98
2022-09-18 22:47:18.484375,3.11
2022-09-18 22:47:18.500000,1.12
2022-09-18 22:47:18.515625,-0.88
2022-09-18 22:47:18.531250,-2.78
2022-09-18 22:47:18.546875,-4.48
2022-09-18 22:47:18.562500,-5.93
2022-09-18 22:47:18.578125,-7.12
2022-09-18 22:47:18.593750,-8.09
2022-09-18 22:47:18.609375,-8.94
2022-09-18 22:47:18.625000,-9.84
2022-09-18 22:47:18.640625,-10.99
2022-09-18 22:47:18.656250,-12.5
2022-09-18 22:47:18.671875,-14.33
2022-09-18 22:47:18.687500,-16.24
2022-09-18 22:47:18.703125,-17.82
2022-09-18 22:47:18.718750,-18.65
2022-09-18 22:47:18.734375,-18.39
2022-09-18 22:47:18.750000,-16.92
2022-09-18 22:47:18.765625,-14.36
2022-09-18 22:47:18.781250,-11.03
2022-09-18 22:47:18.796875,-7.32
2022-09-18 22:47:18.812500,-3.59
2022-09-18 22:47:18.828125,-0.11
2022-09-18 22:47:18.843750,2.99
2022-09-18 22:47:18.859375,5.64
2022-09-18 22:47:18.875000,7.83
2022-09-18 22:47:18.890625,9.52
2022-09-18 22:47:18.906250,10.68
2022-09-18 22:47:18.921875,11.28
2022-09-18 22:47:18.937500,11.37
2022-09-18 22:47:18.953125,11.02
2022-09-18 22:47:18.968750,10.41
2022-09-18 22:47:18.984375,9.72
2022-09-18 22:47:19.000000,9.11
2022-09-18 22:47:19.015625,8.68
2022-09-18 22:47:19.031250,8.46
2022-09-18 22:47:19.046875,8.42
2022-09-18 22:47:19.062500,8.49
2022-09-18 22:47:19.078125,8.59
2022-09-18 22:47:19.093750,8.63
2022-09-18 22:47:19.109375,8.55
2022-09-18 22:47:19.125000,8.32
2022-09-18 22:47:19.140625,7.93
2022-09-18 22:47:19.156250,7.39
2022-09-18 22:47:19.171875,6.71
2022-09-18 22:47:19.187500,5.86
2022-09-18 22:47:19.203125,4.86
2022-09-18 22:47:19.218750,3.71
2022-09-18 22:47:19.234375,2.5
2022-09-18 22:47:19.250000,1.32
2022-09-18 22:47:19.265625,0.26
2022-09-18 22:47:19.281250,-0.66
2022-09-18 22:47:19.296875,-1.5
2022-09-18 22:47:19.312500,-2.35
2022-09-18 22:47:19.328125,-3.3
2022-09-18 22:47:19.343750,-4.38
2022-09-18 22:47:19.359375,-5.55
2022-09-18 22:47:19.375000,-6.74
2022-09-18 22:47:19.390625,-7.9
2022-09-18 22:47:19.406250,-9.05
2022-09-18 22:47:19.421875,-10.24
2022-09-18 22:47:19.437500,-11.55
2022-09-18 22:47:19.453125,-13.04
2022-09-18 22:47:19.468750,-14.75
2022-09-18 22:47:19.484375,-16.69
2022-09-18 22:47:19.500000,-18.79
2022-09-18 22:47:19.515625,-20.88
2022-09-18 22:47:19.531250,-22.68
2022-09-18 22:47:19.546875,-23.78
2022-09-18 22:47:19.562500,-23.77
2022-09-18 22:47:19.578125,-22.39
2022-09-18 22:47:19.593750,-19.62
2022-09-18 22:47:19.609375,-15.74
2022-09-18 22:47:19.625000,-11.22
2022-09-18 22:47:19.640625,-6.57
2022-09-18 22:47:19.656250,-2.19
2022-09-18 22:47:19.671875,1.69
2022-09-18 22:47:19.687500,5.01
2022-09-18 22:47:19.703125,7.81
2022-09-18 22:47:19.718750,10.11
2022-09-18 22:47:19.734375,11.93
2022-09-18 22:47:19.750000,13.25
2022-09-18 22:47:19.765625,14.07
2022-09-18 22:47:19.781250,14.41
2022-09-18 22:47:19.796875,14.37
2022-09-18 22:47:19.812500,14.07
2022-09-18 22:47:19.828125,13.67
2022-09-18 22:47:19.843750,13.28
2022-09-18 22:47:19.859375,12.99
2022-09-18 22:47:19.875000,12.79
2022-09-18 22:47:19.890625,12.62
2022-09-18 22:47:19.906250,12.41
2022-09-18 22:47:19.921875,12.15
2022-09-18 22:47:19.937500,11.85
2022-09-18 22:47:19.953125,11.56
2022-09-18 22:47:19.968750,11.28
2022-09-18 22:47:19.984375,10.93
2022-09-18 22:47:20.000000,10.36
2022-09-18 22:47:20.015625,9.46
2022-09-18 22:47:20.031250,8.25
2022-09-18 22:47:20.046875,6.84
2022-09-18 22:47:20.062500,5.44
2022-09-18 22:47:20.078125,4.24
2022-09-18 22:47:20.093750,3.34
2022-09-18 22:47:20.109375,2.68
2022-09-18 22:47:20.125000,2.12
2022-09-18 22:47:20.140625,1.49
2022-09-18 22:47:20.156250,0.67
2022-09-18 22:47:20.171875,-0.42
2022-09-18 22:47:20.187500,-1.75
2022-09-18 22:47:20.203125,-3.25
2022-09-18 22:47:20.218750,-4.84
2022-09-18 22:47:20.234375,-6.45
2022-09-18 22:47:20.250000,-8.03
2022-09-18 22:47:20.265625,-9.54
2022-09-18 22:47:20.281250,-10.94
2022-09-18 22:47:20.296875,-12.2
2022-09-18 22:47:20.312500,-13.39
2022-09-18 22:47:20.328125,-14.62
2022-09-18 22:47:20.343750,-16.08
2022-09-18 22:47:20.359375,-17.93
2022-09-18 22:47:20.375000,-20.19
2022-09-18 22:47:20.390625,-22.61
2022-09-18 22:47:20.406250,-24.7
2022-09-18 22:47:20.421875,-25.85
2022-09-18 22:47:20.437500,-25.51
2022-09-18 22:47:20.453125,-23.46
2022-09-18 22:47:20.468750,-19.85
2022-09-18 22:47:20.484375,-15.2
2022-09-18 22:47:20.500000,-10.2
2022-09-18 22:47:20.515625,-5.45
2022-09-18 22:47:20.531250,-1.35
2022-09-18 22:47:20.546875,1.99
2022-09-18 22:47:20.562500,4.66
2022-09-18 22:47:20.578125,6.83
2022-09-18 22:47:20.593750,8.64
2022-09-18 22:47:20.609375,10.13
2022-09-18 22:47:20.625000,11.27
2022-09-18 22:47:20.640625,12.01
2022-09-18 22:47:20.656250,12.36
2022-09-18 22:47:20.671875,12.36
2022-09-18 22:47:20.687500,12.13
2022-09-18 22:47:20.703125,11.79
2022-09-18 22:47:20.718750,11.44
2022-09-18 22:47:20.734375,11.16
2022-09-18 22:47:20.750000,10.95
2022-09-18 22:47:20.765625,10.82
2022-09-18 22:47:20.781250,10.71
2022-09-18 22:47:20.796875,10.57
2022-09-18 22:47:20.812500,10.36
2022-09-18 22:47:20.828125,10.03
2022-09-18 22:47:20.843750,9.58
2022-09-18 22:47:20.859375,8.99
2022-09-18 22:47:20.875000,8.28
2022-09-18 22:47:20.890625,7.46
2022-09-18 22:47:20.906250,6.55
2022-09-18 22:47:20.921875,5.63
2022-09-18 22:47:20.937500,4.75
2022-09-18 22:47:20.953125,3.94
2022-09-18 22:47:20.968750,3.16
2022-09-18 22:47:20.984375,2.29
2022-09-18 22:47:21.000000,1.17
2022-09-18 22:47:21.015625,-0.23
2022-09-18 22:47:21.031250,-1.83
2022-09-18 22:47:21.046875,-3.42
2022-09-18 22:47:21.062500,-4.79
2022-09-18 22:47:21.078125,-5.81
2022-09-18 22:47:21.093750,-6.53
2022-09-18 22:47:21.109375,-7.1
2022-09-18 22:47:21.125000,-7.74
2022-09-18 22:47:21.140625,-8.61
2022-09-18 22:47:21.156250,-9.79
2022-09-18 22:47:21.171875,-11.28
2022-09-18 22:47:21.187500,-13.06
2022-09-18 22:47:21.203125,-15.08
2022-09-18 22:47:21.218750,-17.2
2022-09-18 22:47:21.234375,-19.17
2022-09-18 22:47:21.250000,-20.54
2022-09-18 22:47:21.265625,-20.86
2022-09-18 22:47:21.281250,-19.76
2022-09-18 22:47:21.296875,-17.15
2022-09-18 22:47:21.312500,-13.29
2022-09-18 22:47:21.328125,-8.7
2022-09-18 22:47:21.343750,-3.99
2022-09-18 22:47:21.359375,0.34
2022-09-18 22:47:21.375000,4.01
2022-09-18 22:47:21.390625,7.02
2022-09-18 22:47:21.406250,9.48
2022-09-18 22:47:21.421875,11.54
2022-09-18 22:47:21.437500,13.21
2022-09-18 22:47:21.453125,14.41
2022-09-18 22:47:21.468750,15.06
2022-09-18 22:47:21.484375,15.11
2022-09-18 22:47:21.500000,14.67
2022-09-18 22:47:21.515625,13.95
2022-09-18 22:47:21.531250,13.2
2022-09-18 22:47:21.546875,12.58
2022-09-18 22:47:21.562500,12.16
2022-09-18 22:47:21.578125,11.89
2022-09-18 22:47:21.593750,11.66
2022-09-18 22:47:21.609375,11.4
2022-09-18 22:47:21.625000,11.1
2022-09-18 22:47:21.640625,10.8
2022-09-18 22:47:21.656250,10.51
2022-09-18 22:47:21.671875,10.26
2022-09-18 22:47:21.687500,9.96
2022-09-18 22:47:21.703125,9.53
2022-09-18 22:47:21.718750,8.89
2022-09-18 22:47:21.734375,8.0
2022-09-18 22:47:21.750000,6.92
2022-09-18 22:47:21.765625,5.71
2022-09-18 22:47:21.781250,4.5
2022-09-18 22:47:21.796875,3.35
2022-09-18 22:47:21.812500,2.28
2022-09-18 22:47:21.828125,1.27
2022-09-18 22:47:21.843750,0.23
2022-09-18 22:47:21.859375,-0.9
2022-09-18 22:47:21.875000,-2.15
2022-09-18 22:47:21.890625,-3.53
2022-09-18 22:47:21.906250,-4.98
2022-09-18 22:47:21.921875,-6.4
2022-09-18 22:47:21.937500,-7.74
2022-09-18 22:47:21.953125,-8.96
2022-09-18 22:47:21.968750,-10.08
2022-09-18 22:47:21.984375,-11.23
2022-09-18 22:47:22.000000,-12.52
2022-09-18 22:47:22.015625,-14.12
2022-09-18 22:47:22.031250,-16.1
2022-09-18 22:47:22.046875,-18.41
2022-09-18 22:47:22.062500,-20.81
2022-09-18 22:47:22.078125,-22.88
2022-09-18 22:47:22.093750,-24.18
2022-09-18 22:47:22.109375,-24.28
2022-09-18 22:47:22.125000,-22.99
2022-09-18 22:47:22.140625,-20.37
2022-09-18 22:47:22.156250,-16.68
2022-09-18 22:47:22.171875,-12.35
2022-09-18 22:47:22.187500,-7.82
2022-09-18 22:47:22.203125,-3.44
2022-09-18 22:47:22.218750,0.55
2022-09-18 22:47:22.234375,4.04
2022-09-18 22:47:22.250000,6.98
2022-09-18 22:47:22.265625,9.36
2022-09-18 22:47:22.281250,11.23
2022-09-18 22:47:22.296875,12.62
2022-09-18 22:47:22.312500,13.61
2022-09-18 22:47:22.328125,14.24
2022-09-18 22:47:22.343750,14.54
2022-09-18 22:47:22.359375,14.5
2022-09-18 22:47:22.375000,14.13
2022-09-18 22:47:22.390625,13.5
2022-09-18 22:47:22.406250,12.76
2022-09-18 22:47:22.421875,12.07
2022-09-18 22:47:22.437500,11.58
2022-09-18 22:47:22.453125,11.35
2022-09-18 22:47:22.468750,11.35
2022-09-18 22:47:22.484375,11.42
2022-09-18 22:47:22.500000,11.4
2022-09-18 22:47:22.515625,11.2
2022-09-18 22:47:22.531250,10.8
2022-09-18 22:47:22.546875,10.28
2022-09-18 22:47:22.562500,9.69
2022-09-18 22:47:22.578125,9.06
2022-09-18 22:47:22.593750,8.36
2022-09-18 22:47:22.609375,7.53
2022-09-18 22:47:22.625000,6.59
2022-09-18 22:47:22.640625,5.59
2022-09-18 22:47:22.656250,4.64
2022-09-18 22:47:22.671875,3.83
2022-09-18 22:47:22.687500,3.12
2022-09-18 22:47:22.703125,2.39
2022-09-18 22:47:22.718750,1.49
2022-09-18 22:47:22.734375,0.28
2022-09-18 22:47:22.750000,-1.23
2022-09-18 22:47:22.765625,-2.94
2022-09-18 22:47:22.781250,-4.69
2022-09-18 22:47:22.796875,-6.31
2022-09-18 22:47:22.812500,-7.75
2022-09-18 22:47:22.828125,-9.03
2022-09-18 22:47:22.843750,-10.23
2022-09-18 22:47:22.859375,-11.5
2022-09-18 22:47:22.875000,-12.92
2022-09-18 22:47:22.890625,-14.55
2022-09-18 22:47:22.906250,-16.39
2022-09-18 22:47:22.921875,-18.34
2022-09-18 22:47:22.937500,-20.23
2022-09-18 22:47:22.953125,-21.79
2022-09-18 22:47:22.968750,-22.72
2022-09-18 22:47:22.984375,-22.75
2022-09-18 22:47:23.000000,-21.7
2022-09-18 22:47:23.015625,-19.59
2022-09-18 22:47:23.031250,-16.53
2022-09-18 22:47:23.046875,-12.81
2022-09-18 22:47:23.062500,-8.72
2022-09-18 22:47:23.078125,-4.56
2022-09-18 22:47:23.093750,-0.59
2022-09-18 22:47:23.109375,3.02
2022-09-18 22:47:23.125000,6.16
2022-09-18 22:47:23.140625,8.82
2022-09-18 22:47:23.156250,11.0
2022-09-18 22:47:23.171875,12.78
2022-09-18 22:47:23.187500,14.18
2022-09-18 22:47:23.203125,15.24
2022-09-18 22:47:23.218750,15.93
2022-09-18 22:47:23.234375,16.21
2022-09-18 22:47:23.250000,16.09
2022-09-18 22:47:23.265625,15.65
2022-09-18 22:47:23.281250,15.06
2022-09-18 22:47:23.296875,14.46
2022-09-18 22:47:23.312500,13.93
2022-09-18 22:47:23.328125,13.45
2022-09-18 22:47:23.343750,12.95
2022-09-18 22:47:23.359375,12.34
2022-09-18 22:47:23.375000,11.65
2022-09-18 22:47:23.390625,10.96
2022-09-18 22:47:23.406250,10.4
2022-09-18 22:47:23.421875,10.01
2022-09-18 22:47:23.437500,9.73
2022-09-18 22:47:23.453125,9.38
2022-09-18 22:47:23.468750,8.78
2022-09-18 22:47:23.484375,7.83
2022-09-18 22:47:23.500000,6.57
2022-09-18 22:47:23.515625,5.15
2022-09-18 22:47:23.531250,3.76
2022-09-18 22:47:23.546875,2.55
2022-09-18 22:47:23.562500,1.52
2022-09-18 22:47:23.578125,0.57
2022-09-18 22:47:23.593750,-0.46
2022-09-18 22:47:23.609375,-1.65
2022-09-18 22:47:23.625000,-3.01
2022-09-18 22:47:23.640625,-4.47
2022-09-18 22:47:23.656250,-5.89
2022-09-18 22:47:23.671875,-7.19
2022-09-18 22:47:23.687500,-8.35
2022-09-18 22:47:23.703125,-9.41
2022-09-18 22:47:23.718750,-10.43
2022-09-18 22:47:23.734375,-11.45
2022-09-18 22:47:23.750000,-12.47
2022-09-18 22:47:23.765625,-13.56
2022-09-18 22:47:23.781250,-14.82
2022-09-18 22:47:23.796875,-16.36
2022-09-18 22:47:23.812500,-18.26
2022-09-18 22:47:23.828125,-20.43
2022-09-18 22:47:23.843750,-22.57
2022-09-18 22:47:23.859375,-24.24
2022-09-18 22:47:23.875000,-24.92
2022-09-18 22:47:23.890625,-24.25
2022-09-18 22:47:23.906250,-22.1
2022-09-18 22:47:23.921875,-18.65
2022-09-18 22:47:23.937500,-14.31
2022-09-18 22:47:23.953125,-9.63
2022-09-18 22:47:23.968750,-5.08
2022-09-18 22:47:23.984375,-0.99
2022-09-18 22:47:24.000000,2.51
2022-09-18 22:47:24.015625,5.47
2022-09-18 22:47:24.031250,7.94
2022-09-18 22:47:24.046875,9.95
2022-09-18 22:47:24.062500,11.44
2022-09-18 22:47:24.078125,12.3
2022-09-18 22:47:24.093750,12.5
2022-09-18 22:47:24.109375,12.15
2022-09-18 22:47:24.125000,11.45
2022-09-18 22:47:24.140625,10.69
2022-09-18 22:47:24.156250,10.1
2022-09-18 22:47:24.171875,9.75
2022-09-18 22:47:24.187500,9.6
2022-09-18 22:47:24.203125,9.53
2022-09-18 22:47:24.218750,9.46
2022-09-18 22:47:24.234375,9.37
2022-09-18 22:47:24.250000,9.34
2022-09-18 22:47:24.265625,9.42
2022-09-18 22:47:24.281250,9.59
2022-09-18 22:47:24.296875,9.76
2022-09-18 22:47:24.312500,9.72
2022-09-18 22:47:24.328125,9.29
2022-09-18 22:47:24.343750,8.36
2022-09-18 22:47:24.359375,6.99
2022-09-18 22:47:24.375000,5.38
2022-09-18 22:47:24.390625,3.82
2022-09-18 22:47:24.406250,2.55
2022-09-18 22:47:24.421875,1.64
2022-09-18 22:47:24.437500,0.98
2022-09-18 22:47:24.453125,0.3
2022-09-18 22:47:24.468750,-0.69
2022-09-18 22:47:24.484375,-2.17
2022-09-18 22:47:24.500000,-4.09
2022-09-18 22:47:24.515625,-6.15
2022-09-18 22:47:24.531250,-8.0
2022-09-18 22:47:24.546875,-9.37
2022-09-18 22:47:24.562500,-10.26
2022-09-18 22:47:24.578125,-10.94
2022-09-18 22:47:24.593750,-11.85
2022-09-18 22:47:24.609375,-13.4
2022-09-18 22:47:24.625000,-15.65
2022-09-18 22:47:24.640625,-18.32
2022-09-18 22:47:24.656250,-20.72
2022-09-18 22:47:24.671875,-22.06
2022-09-18 22:47:24.687500,-21.7
2022-09-18 22:47:24.703125,-19.41
2022-09-18 22:47:24.718750,-15.45
2022-09-18 22:47:24.734375,-10.48
2022-09-18 22:47:24.750000,-5.32
2022-09-18 22:47:24.765625,-0.65
2022-09-18 22:47:24.781250,3.15
2022-09-18 22:47:24.796875,6.0
2022-09-18 22:47:24.812500,8.1
2022-09-18 22:47:24.828125,9.84
2022-09-18 22:47:24.843750,11.72
2022-09-18 22:47:24.859375,14.3
2022-09-18 22:47:24.875000,18.02
2022-09-18 22:47:24.890625,22.94
2022-09-18 22:47:24.906250,28.58
2022-09-18 22:47:24.921875,33.92
2022-09-18 22:47:24.937500,37.77
2022-09-18 22:47:24.953125,39.36
2022-09-18 22:47:24.968750,38.73
2022-09-18 22:47:24.984375,36.84
2022-09-18 22:47:25.000000,35.08
2022-09-18 22:47:25.015625,34.62
2022-09-18 22:47:25.031250,35.87
2022-09-18 22:47:25.046875,38.38
2022-09-18 22:47:25.062500,41.13
2022-09-18 22:47:25.078125,43.16
2022-09-18 22:47:25.093750,43.88
2022-09-18 22:47:25.109375,43.18
2022-09-18 22:47:25.125000,41.13
2022-09-18 22:47:25.140625,37.7
2022-09-18 22:47:25.156250,32.61
2022-09-18 22:47:25.171875,25.46
2022-09-18 22:47:25.187500,16.04
2022-09-18 22:47:25.203125,4.63
2022-09-18 22:47:25.218750,-7.99
2022-09-18 22:47:25.234375,-20.65
2022-09-18 22:47:25.250000,-32.17
2022-09-18 22:47:25.265625,-41.74
2022-09-18 22:47:25.281250,-49.08
2022-09-18 22:47:25.296875,-54.41
2022-09-18 22:47:25.312500,-58.27
2022-09-18 22:47:25.328125,-61.1
2022-09-18 22:47:25.343750,-63.07
2022-09-18 22:47:25.359375,-63.94
2022-09-18 22:47:25.375000,-63.31
2022-09-18 22:47:25.390625,-60.8
2022-09-18 22:47:25.406250,-56.32
2022-09-18 22:47:25.421875,-50.13
2022-09-18 22:47:25.437500,-42.71
2022-09-18 22:47:25.453125,-34.57
2022-09-18 22:47:25.468750,-26.04
2022-09-18 22:47:25.484375,-17.25
2022-09-18 22:47:25.500000,-8.12
2022-09-18 22:47:25.515625,1.43
2022-09-18 22:47:25.531250,11.33
2022-09-18 22:47:25.546875,21.26
2022-09-18 22:47:25.562500,30.61
2022-09-18 22:47:25.578125,38.61
2022-09-18 22:47:25.593750,44.38
2022-09-18 22:47:25.609375,47.13
2022-09-18 22:47:25.625000,46.32
2022-09-18 22:47:25.640625,41.84
2022-09-18 22:47:25.656250,34.09
2022-09-18 22:47:25.671875,24.02
2022-09-18 22:47:25.687500,13.02
2022-09-18 22:47:25.703125,2.63
2022-09-18 22:47:25.718750,-5.81
2022-09-18 22:47:25.734375,-11.43
2022-09-18 22:47:25.750000,-14.08
2022-09-18 22:47:25.765625,-14.22
2022-09-18 22:47:25.781250,-12.72
2022-09-18 22:47:25.796875,-10.42
2022-09-18 22:47:25.812500,-7.86
2022-09-18 22:47:25.828125,-5.15
2022-09-18 22:47:25.843750,-2.03
2022-09-18 22:47:25.859375,1.82
2022-09-18 22:47:25.875000,6.53
2022-09-18 22:47:25.890625,11.93
2022-09-18 22:47:25.906250,17.57
2022-09-18 22:47:25.921875,22.94
2022-09-18 22:47:25.937500,27.64
2022-09-18 22:47:25.953125,31.46
2022-09-18 22:47:25.968750,34.34
2022-09-18 22:47:25.984375,36.23
2022-09-18 22:47:26.000000,37.0
2022-09-18 22:47:26.015625,36.44
2022-09-18 22:47:26.031250,34.29
2022-09-18 22:47:26.046875,30.41
2022-09-18 22:47:26.062500,24.81
2022-09-18 22:47:26.078125,17.74
2022-09-18 22:47:26.093750,9.66
2022-09-18 22:47:26.109375,1.25
2022-09-18 22:47:26.125000,-6.76
2022-09-18 22:47:26.140625,-13.61
2022-09-18 22:47:26.156250,-18.77
2022-09-18 22:47:26.171875,-21.93
2022-09-18 22:47:26.187500,-23.08
2022-09-18 22:47:26.203125,-22.49
2022-09-18 22:47:26.218750,-20.53
2022-09-18 22:47:26.234375,-17.66
2022-09-18 22:47:26.250000,-14.28
2022-09-18 22:47:26.265625,-10.75
2022-09-18 22:47:26.281250,-7.33
2022-09-18 22:47:26.296875,-4.23
2022-09-18 22:47:26.312500,-1.6
2022-09-18 22:47:26.328125,0.48
2022-09-18 22:47:26.343750,1.98
2022-09-18 22:47:26.359375,2.91
2022-09-18 22:47:26.375000,3.31
2022-09-18 22:47:26.390625,3.26
2022-09-18 22:47:26.406250,2.78
2022-09-18 22:47:26.421875,1.95
2022-09-18 22:47:26.437500,0.81
2022-09-18 22:47:26.453125,-0.56
2022-09-18 22:47:26.468750,-2.02
2022-09-18 22:47:26.484375,-3.44
2022-09-18 22:47:26.500000,-4.64
2022-09-18 22:47:26.515625,-5.45
2022-09-18 22:47:26.531250,-5.69
2022-09-18 22:47:26.546875,-5.24
2022-09-18 22:47:26.562500,-4.08
2022-09-18 22:47:26.578125,-2.34
2022-09-18 22:47:26.593750,-0.31
2022-09-18 22:47:26.609375,1.62
2022-09-18 22:47:26.625000,3.08
2022-09-18 22:47:26.640625,3.89
2022-09-18 22:47:26.656250,4.15
2022-09-18 22:47:26.671875,4.14
2022-09-18 22:47:26.687500,4.21
2022-09-18 22:47:26.703125,4.55
2022-09-18 22:47:26.718750,5.13
2022-09-18 22:47:26.734375,5.72
2022-09-18 22:47:26.750000,6.1
2022-09-18 22:47:26.765625,6.16
2022-09-18 22:47:26.781250,5.93
2022-09-18 22:47:26.796875,5.51
2022-09-18 22:47:26.812500,4.85
2022-09-18 22:47:26.828125,3.76
2022-09-18 22:47:26.843750,1.88
2022-09-18 22:47:26.859375,-1.08
2022-09-18 22:47:26.875000,-5.14
2022-09-18 22:47:26.890625,-9.95
2022-09-18 22:47:26.906250,-14.87
2022-09-18 22:47:26.921875,-19.16
2022-09-18 22:47:26.937500,-22.25
2022-09-18 22:47:26.953125,-23.9
2022-09-18 22:47:26.968750,-24.24
2022-09-18 22:47:26.984375,-23.64
2022-09-18 22:47:27.000000,-22.52
2022-09-18 22:47:27.015625,-21.23
2022-09-18 22:47:27.031250,-19.9
2022-09-18 22:47:27.046875,-18.53
2022-09-18 22:47:27.062500,-17.06
2022-09-18 22:47:27.078125,-15.43
2022-09-18 22:47:27.093750,-13.65
2022-09-18 22:47:27.109375,-11.73
2022-09-18 22:47:27.125000,-9.68
2022-09-18 22:47:27.140625,-7.51
2022-09-18 22:47:27.156250,-5.26
2022-09-18 22:47:27.171875,-2.96
2022-09-18 22:47:27.187500,-0.7
2022-09-18 22:47:27.203125,1.41
2022-09-18 22:47:27.218750,3.35
2022-09-18 22:47:27.234375,5.11
2022-09-18 22:47:27.250000,6.72
2022-09-18 22:47:27.265625,8.22
2022-09-18 22:47:27.281250,9.59
2022-09-18 22:47:27.296875,10.77
2022-09-18 22:47:27.312500,11.66
2022-09-18 22:47:27.328125,12.18
2022-09-18 22:47:27.343750,12.3
2022-09-18 22:47:27.359375,12.06
2022-09-18 22:47:27.375000,11.47
2022-09-18 22:47:27.390625,10.51
2022-09-18 22:47:27.406250,9.07
2022-09-18 22:47:27.421875,7.0
2022-09-18 22:47:27.437500,4.18
2022-09-18 22:47:27.453125,0.67
2022-09-18 22:47:27.468750,-3.29
2022-09-18 22:47:27.484375,-7.24
2022-09-18 22:47:27.500000,-10.61
2022-09-18 22:47:27.515625,-12.96
2022-09-18 22:47:27.531250,-14.04
2022-09-18 22:47:27.546875,-13.91
2022-09-18 22:47:27.562500,-12.87
2022-09-18 22:47:27.578125,-11.31
2022-09-18 22:47:27.593750,-9.6
2022-09-18 22:47:27.609375,-7.99
2022-09-18 22:47:27.625000,-6.61
2022-09-18 22:47:27.640625,-5.49
2022-09-18 22:47:27.656250,-4.63
2022-09-18 22:47:27.671875,-3.99
2022-09-18 22:47:27.687500,-3.51
2022-09-18 22:47:27.703125,-3.11
2022-09-18 22:47:27.718750,-2.68
2022-09-18 22:47:27.734375,-2.16
2022-09-18 22:47:27.750000,-1.52
2022-09-18 22:47:27.765625,-0.79
2022-09-18 22:47:27.781250,-0.03
2022-09-18 22:47:27.796875,0.69
2022-09-18 22:47:27.812500,1.3
2022-09-18 22:47:27.828125,1.76
2022-09-18 22:47:27.843750,2.0
2022-09-18 22:47:27.859375,2.03
2022-09-18 22:47:27.875000,1.84
2022-09-18 22:47:27.890625,1.51
2022-09-18 22:47:27.906250,1.1
2022-09-18 22:47:27.921875,0.69
2022-09-18 22:47:27.937500,0.32
2022-09-18 22:47:27.953125,-0.03
2022-09-18 22:47:27.968750,-0.45
2022-09-18 22:47:27.984375,-1.03
2022-09-18 22:47:28.000000,-1.88
2022-09-18 22:47:28.015625,-3.05
2022-09-18 22:47:28.031250,-4.56
2022-09-18 22:47:28.046875,-6.32
2022-09-18 22:47:28.062500,-8.23
2022-09-18 22:47:28.078125,-10.21
2022-09-18 22:47:28.093750,-12.24
2022-09-18 22:47:28.109375,-14.37
2022-09-18 22:47:28.125000,-16.71
2022-09-18 22:47:28.140625,-19.34
2022-09-18 22:47:28.156250,-22.2
2022-09-18 22:47:28.171875,-25.06
2022-09-18 22:47:28.187500,-27.64
2022-09-18 22:47:28.203125,-29.7
2022-09-18 22:47:28.218750,-31.15
2022-09-18 22:47:28.234375,-32.13
2022-09-18 22:47:28.250000,-32.88
2022-09-18 22:47:28.265625,-33.66
2022-09-18 22:47:28.281250,-34.57
2022-09-18 22:47:28.296875,-35.57
2022-09-18 22:47:28.312500,-36.53
2022-09-18 22:47:28.328125,-37.28
2022-09-18 22:47:28.343750,-37.71
2022-09-18 22:47:28.359375,-37.72
2022-09-18 22:47:28.375000,-37.25
2022-09-18 22:47:28.390625,-36.26
2022-09-18 22:47:28.406250,-34.76
2022-09-18 22:47:28.421875,-32.82
2022-09-18 22:47:28.437500,-30.61
2022-09-18 22:47:28.453125,-28.37
2022-09-18 22:47:28.468750,-26.37
2022-09-18 22:47:28.484375,-24.88
2022-09-18 22:47:28.500000,-24.1
2022-09-18 22:47:28.515625,-24.14
2022-09-18 22:47:28.531250,-24.99
2022-09-18 22:47:28.546875,-26.56
2022-09-18 22:47:28.562500,-28.66
2022-09-18 22:47:28.578125,-31.12
2022-09-18 22:47:28.593750,-33.73
2022-09-18 22:47:28.609375,-36.27
2022-09-18 22:47:28.625000,-38.41
2022-09-18 22:47:28.640625,-39.69
2022-09-18 22:47:28.656250,-39.56
2022-09-18 22:47:28.671875,-37.53
2022-09-18 22:47:28.687500,-33.35
2022-09-18 22:47:28.703125,-27.15
2022-09-18 22:47:28.718750,-19.43
2022-09-18 22:47:28.734375,-10.95
2022-09-18 22:47:28.750000,-2.46
2022-09-18 22:47:28.765625,5.37
2022-09-18 22:47:28.781250,12.13
2022-09-18 22:47:28.796875,17.63
2022-09-18 22:47:28.812500,21.82
2022-09-18 22:47:28.828125,24.73
2022-09-18 22:47:28.843750,26.44
2022-09-18 22:47:28.859375,27.03
2022-09-18 22:47:28.875000,26.68
2022-09-18 22:47:28.890625,25.68
2022-09-18 22:47:28.906250,24.6
2022-09-18 22:47:28.921875,24.2
2022-09-18 22:47:28.937500,25.33
2022-09-18 22:47:28.953125,28.55
2022-09-18 22:47:28.968750,33.88
2022-09-18 22:47:28.984375,40.55
2022-09-18 22:47:29.000000,47.23
2022-09-18 22:47:29.015625,52.36
2022-09-18 22:47:29.031250,54.74
2022-09-18 22:47:29.046875,53.83
2022-09-18 22:47:29.062500,49.92
2022-09-18 22:47:29.078125,43.9
2022-09-18 22:47:29.093750,36.89
2022-09-18 22:47:29.109375,30.08
2022-09-18 22:47:29.125000,24.54
2022-09-18 22:47:29.140625,21.25
2022-09-18 22:47:29.156250,21.0
2022-09-18 22:47:29.171875,24.19
2022-09-18 22:47:29.187500,30.44
2022-09-18 22:47:29.203125,38.5
2022-09-18 22:47:29.218750,46.39
2022-09-18 22:47:29.234375,51.98
2022-09-18 22:47:29.250000,53.65
2022-09-18 22:47:29.265625,50.85
2022-09-18 22:47:29.281250,44.19
2022-09-18 22:47:29.296875,35.1
2022-09-18 22:47:29.312500,25.3
2022-09-18 22:47:29.328125,16.25
2022-09-18 22:47:29.343750,8.91
2022-09-18 22:47:29.359375,3.71
2022-09-18 22:47:29.375000,0.71
2022-09-18 22:47:29.390625,-0.28
2022-09-18 22:47:29.406250,0.37
2022-09-18 22:47:29.421875,2.1
2022-09-18 22:47:29.437500,4.28
2022-09-18 22:47:29.453125,6.28
2022-09-18 22:47:29.468750,7.58
2022-09-18 22:47:29.484375,7.94
2022-09-18 22:47:29.500000,7.28
2022-09-18 22:47:29.515625,5.72
2022-09-18 22:47:29.531250,3.48
2022-09-18 22:47:29.546875,0.87
2022-09-18 22:47:29.562500,-1.68
2022-09-18 22:47:29.578125,-3.63
2022-09-18 22:47:29.593750,-4.35
2022-09-18 22:47:29.609375,-3.32
2022-09-18 22:47:29.625000,-0.34
2022-09-18 22:47:29.640625,4.33
2022-09-18 22:47:29.656250,10.0
2022-09-18 22:47:29.671875,15.73
2022-09-18 22:47:29.687500,20.6
2022-09-18 22:47:29.703125,24.06
2022-09-18 22:47:29.718750,25.97
2022-09-18 22:47:29.734375,26.54
2022-09-18 22:47:29.750000,26.11
2022-09-18 22:47:29.765625,24.92
2022-09-18 22:47:29.781250,23.01
2022-09-18 22:47:29.796875,20.27
2022-09-18 22:47:29.812500,16.61
2022-09-18 22:47:29.828125,12.1
2022-09-18 22:47:29.843750,7.07
2022-09-18 22:47:29.859375,2.06
2022-09-18 22:47:29.875000,-2.27
2022-09-18 22:47:29.890625,-5.25
2022-09-18 22:47:29.906250,-6.32
2022-09-18 22:47:29.921875,-5.12
2022-09-18 22:47:29.937500,-1.68
2022-09-18 22:47:29.953125,3.46
2022-09-18 22:47:29.968750,9.24
2022-09-18 22:47:29.984375,14.32
2022-09-18 22:47:30.000000,17.41
2022-09-18 22:47:30.015625,17.77
2022-09-18 22:47:30.031250,15.35
2022-09-18 22:47:30.046875,10.77
2022-09-18 22:47:30.062500,4.97
2022-09-18 22:47:30.078125,-1.25
2022-09-18 22:47:30.093750,-7.5
2022-09-18 22:47:30.109375,-13.74
2022-09-18 22:47:30.125000,-19.93
2022-09-18 22:47:30.140625,-25.69
2022-09-18 22:47:30.156250,-30.15
2022-09-18 22:47:30.171875,-32.15
2022-09-18 22:47:30.187500,-30.87
2022-09-18 22:47:30.203125,-26.2
2022-09-18 22:47:30.218750,-19.07
2022-09-18 22:47:30.234375,-11.05
2022-09-18 22:47:30.250000,-3.79
2022-09-18 22:47:30.265625,1.64
2022-09-18 22:47:30.281250,5.06
2022-09-18 22:47:30.296875,7.0
2022-09-18 22:47:30.312500,8.24
2022-09-18 22:47:30.328125,9.29
2022-09-18 22:47:30.343750,10.23
2022-09-18 22:47:30.359375,10.79
2022-09-18 22:47:30.375000,10.8
2022-09-18 22:47:30.390625,10.34
2022-09-18 22:47:30.406250,9.83
2022-09-18 22:47:30.421875,9.65
2022-09-18 22:47:30.437500,9.91
2022-09-18 22:47:30.453125,10.27
2022-09-18 22:47:30.468750,10.12
2022-09-18 22:47:30.484375,8.9
2022-09-18 22:47:30.500000,6.5
2022-09-18 22:47:30.515625,3.23
2022-09-18 22:47:30.531250,-0.28
2022-09-18 22:47:30.546875,-3.46
2022-09-18 22:47:30.562500,-6.0
2022-09-18 22:47:30.578125,-7.99
2022-09-18 22:47:30.593750,-9.73
2022-09-18 22:47:30.609375,-11.55
2022-09-18 22:47:30.625000,-13.64
2022-09-18 22:47:30.640625,-15.99
2022-09-18 22:47:30.656250,-18.45
2022-09-18 22:47:30.671875,-20.85
2022-09-18 22:47:30.687500,-23.05
2022-09-18 22:47:30.703125,-24.96
2022-09-18 22:47:30.718750,-26.53
2022-09-18 22:47:30.734375,-27.76
2022-09-18 22:47:30.750000,-28.73
2022-09-18 22:47:30.765625,-29.61
2022-09-18 22:47:30.781250,-30.6
2022-09-18 22:47:30.796875,-31.9
2022-09-18 22:47:30.812500,-33.59
2022-09-18 22:47:30.828125,-35.58
2022-09-18 22:47:30.843750,-37.63
2022-09-18 22:47:30.859375,-39.45
2022-09-18 22:47:30.875000,-40.77
2022-09-18 22:47:30.890625,-41.43
2022-09-18 22:47:30.906250,-41.42
2022-09-18 22:47:30.921875,-40.83
2022-09-18 22:47:30.937500,-39.85
2022-09-18 22:47:30.953125,-38.73
2022-09-18 22:47:30.968750,-37.71
2022-09-18 22:47:30.984375,-36.96
2022-09-18 22:47:31.000000,-36.53
2022-09-18 22:47:31.015625,-36.31
2022-09-18 22:47:31.031250,-35.96
2022-09-18 22:47:31.046875,-35.0
2022-09-18 22:47:31.062500,-32.93
2022-09-18 22:47:31.078125,-29.36
2022-09-18 22:47:31.093750,-24.13
2022-09-18 22:47:31.109375,-17.38
2022-09-18 22:47:31.125000,-9.56
2022-09-18 22:47:31.140625,-1.27
2022-09-18 22:47:31.156250,6.87
2022-09-18 22:47:31.171875,14.35
2022-09-18 22:47:31.187500,20.89
2022-09-18 22:47:31.203125,26.4
2022-09-18 22:47:31.218750,30.86
2022-09-18 22:47:31.234375,34.3
2022-09-18 22:47:31.250000,36.69
2022-09-18 22:47:31.265625,38.07
2022-09-18 22:47:31.281250,38.52
2022-09-18 22:47:31.296875,38.27
2022-09-18 22:47:31.312500,37.62
2022-09-18 22:47:31.328125,36.81
2022-09-18 22:47:31.343750,36.01
2022-09-18 22:47:31.359375,35.21
2022-09-18 22:47:31.375000,34.32
2022-09-18 22:47:31.390625,33.25
2022-09-18 22:47:31.406250,31.95
2022-09-18 22:47:31.421875,30.46
2022-09-18 22:47:31.437500,28.84
2022-09-18 22:47:31.453125,27.14
2022-09-18 22:47:31.468750,25.37
2022-09-18 22:47:31.484375,23.55
2022-09-18 22:47:31.500000,21.69
2022-09-18 22:47:31.515625,19.86
2022-09-18 22:47:31.531250,18.1
2022-09-18 22:47:31.546875,16.44
2022-09-18 22:47:31.562500,14.93
2022-09-18 22:47:31.578125,13.56
2022-09-18 22:47:31.593750,12.35
2022-09-18 22:47:31.609375,11.27
2022-09-18 22:47:31.625000,10.27
2022-09-18 22:47:31.640625,9.24
2022-09-18 22:47:31.656250,8.08
2022-09-18 22:47:31.671875,6.7
2022-09-18 22:47:31.687500,5.12
2022-09-18 22:47:31.703125,3.42
2022-09-18 22:47:31.718750,1.71
2022-09-18 22:47:31.734375,0.09
2022-09-18 22:47:31.750000,-1.44
2022-09-18 22:47:31.765625,-2.91
2022-09-18 22:47:31.781250,-4.4
2022-09-18 22:47:31.796875,-5.97
2022-09-18 22:47:31.812500,-7.62
2022-09-18 22:47:31.828125,-9.34
2022-09-18 22:47:31.843750,-11.1
2022-09-18 22:47:31.859375,-12.91
2022-09-18 22:47:31.875000,-14.79
2022-09-18 22:47:31.890625,-16.73
2022-09-18 22:47:31.906250,-18.63
2022-09-18 22:47:31.921875,-20.31
2022-09-18 22:47:31.937500,-21.45
2022-09-18 22:47:31.953125,-21.74
2022-09-18 22:47:31.968750,-20.98
2022-09-18 22:47:31.984375,-19.17
2022-09-18 22:47:32.000000,-16.52
2022-09-18 22:47:32.015625,-13.39
2022-09-18 22:47:32.031250,-10.06
2022-09-18 22:47:32.046875,-6.74
2022-09-18 22:47:32.062500,-3.44
2022-09-18 22:47:32.078125,-0.16
2022-09-18 22:47:32.093750,3.07
2022-09-18 22:47:32.109375,6.06
2022-09-18 22:47:32.125000,8.58
2022-09-18 22:47:32.140625,10.47
2022-09-18 22:47:32.156250,11.72
2022-09-18 22:47:32.171875,12.49
2022-09-18 22:47:32.187500,13.01
2022-09-18 22:47:32.203125,13.49
2022-09-18 22:47:32.218750,14.01
2022-09-18 22:47:32.234375,14.5
2022-09-18 22:47:32.250000,14.85
2022-09-18 22:47:32.265625,14.99
2022-09-18 22:47:32.281250,14.9
2022-09-18 22:47:32.296875,14.64
2022-09-18 22:47:32.312500,14.3
2022-09-18 22:47:32.328125,13.95
2022-09-18 22:47:32.343750,13.61
2022-09-18 22:47:32.359375,13.27
2022-09-18 22:47:32.375000,12.88
2022-09-18 22:47:32.390625,12.42
2022-09-18 22:47:32.406250,11.87
2022-09-18 22:47:32.421875,11.23
2022-09-18 22:47:32.437500,10.52
2022-09-18 22:47:32.453125,9.76
2022-09-18 22:47:32.468750,9.05
2022-09-18 22:47:32.484375,8.51
2022-09-18 22:47:32.500000,8.27
2022-09-18 22:47:32.515625,8.39
2022-09-18 22:47:32.531250,8.8
2022-09-18 22:47:32.546875,9.28
2022-09-18 22:47:32.562500,9.58
2022-09-18 22:47:32.578125,9.46
2022-09-18 22:47:32.593750,8.83
2022-09-18 22:47:32.609375,7.75
2022-09-18 22:47:32.625000,6.38
2022-09-18 22:47:32.640625,4.89
2022-09-18 22:47:32.656250,3.46
2022-09-18 22:47:32.671875,2.2
2022-09-18 22:47:32.687500,1.22
2022-09-18 22:47:32.703125,0.54
2022-09-18 22:47:32.718750,0.16
2022-09-18 22:47:32.734375,-0.01
2022-09-18 22:47:32.750000,-0.1
2022-09-18 22:47:32.765625,-0.24
2022-09-18 22:47:32.781250,-0.47
2022-09-18 22:47:32.796875,-0.75
2022-09-18 22:47:32.812500,-0.98
2022-09-18 22:47:32.828125,-1.11
2022-09-18 22:47:32.843750,-1.14
2022-09-18 22:47:32.859375,-1.11
2022-09-18 22:47:32.875000,-1.07
2022-09-18 22:47:32.890625,-1.03
2022-09-18 22:47:32.906250,-0.94
2022-09-18 22:47:32.921875,-0.78
2022-09-18 22:47:32.937500,-0.58
2022-09-18 22:47:32.953125,-0.4
2022-09-18 22:47:32.968750,-0.37
2022-09-18 22:47:32.984375,-0.54
2022-09-18 22:47:33.000000,-0.9
2022-09-18 22:47:33.015625,-1.37
2022-09-18 22:47:33.031250,-1.78
2022-09-18 22:47:33.046875,-1.97
2022-09-18 22:47:33.062500,-1.84
2022-09-18 22:47:33.078125,-1.38
2022-09-18 22:47:33.093750,-0.72
2022-09-18 22:47:33.109375,-0.04
2022-09-18 22:47:33.125000,0.45
2022-09-18 22:47:33.140625,0.63
2022-09-18 22:47:33.156250,0.52
2022-09-18 22:47:33.171875,0.27
2022-09-18 22:47:33.187500,0.09
2022-09-18 22:47:33.203125,0.11
2022-09-18 22:47:33.218750,0.35
2022-09-18 22:47:33.234375,0.67
2022-09-18 22:47:33.250000,0.88
2022-09-18 22:47:33.265625,0.82
2022-09-18 22:47:33.281250,0.49
2022-09-18 22:47:33.296875,-0.0
2022-09-18 22:47:33.312500,-0.47
2022-09-18 22:47:33.328125,-0.77
2022-09-18 22:47:33.343750,-0.92
2022-09-18 22:47:33.359375,-1.01
2022-09-18 22:47:33.375000,-1.17
2022-09-18 22:47:33.390625,-1.5
2022-09-18 22:47:33.406250,-1.94
2022-09-18 22:47:33.421875,-2.34
2022-09-18 22:47:33.437500,-2.54
2022-09-18 22:47:33.453125,-2.44
2022-09-18 22:47:33.468750,-2.06
2022-09-18 22:47:33.484375,-1.52
2022-09-18 22:47:33.500000,-0.96
2022-09-18 22:47:33.515625,-0.41
2022-09-18 22:47:33.531250,0.16
2022-09-18 22:47:33.546875,0.84
2022-09-18 22:47:33.562500,1.66
2022-09-18 22:47:33.578125,2.59
2022-09-18 22:47:33.593750,3.49
2022-09-18 22:47:33.609375,4.26
2022-09-18 22:47:33.625000,4.83
2022-09-18 22:47:33.640625,5.25
2022-09-18 22:47:33.656250,5.61
2022-09-18 22:47:33.671875,5.99
2022-09-18 22:47:33.687500,6.41
2022-09-18 22:47:33.703125,6.81
2022-09-18 22:47:33.718750,7.09
2022-09-18 22:47:33.734375,7.25
2022-09-18 22:47:33.750000,7.3
2022-09-18 22:47:33.765625,7.34
2022-09-18 22:47:33.781250,7.41
2022-09-18 22:47:33.796875,7.54
2022-09-18 22:47:33.812500,7.66
2022-09-18 22:47:33.828125,7.7
2022-09-18 22:47:33.843750,7.58
2022-09-18 22:47:33.859375,7.27
2022-09-18 22:47:33.875000,6.83
2022-09-18 22:47:33.890625,6.31
2022-09-18 22:47:33.906250,5.79
2022-09-18 22:47:33.921875,5.25
2022-09-18 22:47:33.937500,4.6
2022-09-18 22:47:33.953125,3.72
2022-09-18 22:47:33.968750,2.54
2022-09-18 22:47:33.984375,1.11
2022-09-18 22:47:34.000000,-0.4
2022-09-18 22:47:34.015625,-1.77
2022-09-18 22:47:34.031250,-2.81
2022-09-18 22:47:34.046875,-3.47
2022-09-18 22:47:34.062500,-3.84
2022-09-18 22:47:34.078125,-4.11
2022-09-18 22:47:34.093750,-4.44
2022-09-18 22:47:34.109375,-4.89
2022-09-18 22:47:34.125000,-5.44
2022-09-18 22:47:34.140625,-6.0
2022-09-18 22:47:34.156250,-6.51
2022-09-18 22:47:34.171875,-6.95
2022-09-18 22:47:34.187500,-7.33
2022-09-18 22:47:34.203125,-7.65
2022-09-18 22:47:34.218750,-7.92
2022-09-18 22:47:34.234375,-8.12
2022-09-18 22:47:34.250000,-8.24
2022-09-18 22:47:34.265625,-8.3
2022-09-18 22:47:34.281250,-8.31
2022-09-18 22:47:34.296875,-8.3
2022-09-18 22:47:34.312500,-8.28
2022-09-18 22:47:34.328125,-8.25
2022-09-18 22:47:34.343750,-8.21
2022-09-18 22:47:34.359375,-8.13
2022-09-18 22:47:34.375000,-7.96
2022-09-18 22:47:34.390625,-7.62
2022-09-18 22:47:34.406250,-7.07
2022-09-18 22:47:34.421875,-6.3
2022-09-18 22:47:34.437500,-5.4
2022-09-18 22:47:34.453125,-4.53
2022-09-18 22:47:34.468750,-3.84
2022-09-18 22:47:34.484375,-3.4
2022-09-18 22:47:34.500000,-3.2
2022-09-18 22:47:34.515625,-3.16
2022-09-18 22:47:34.531250,-3.2
2022-09-18 22:47:34.546875,-3.28
2022-09-18 22:47:34.562500,-3.38
2022-09-18 22:47:34.578125,-3.43
2022-09-18 22:47:34.593750,-3.4
2022-09-18 22:47:34.609375,-3.18
2022-09-18 22:47:34.625000,-2.75
2022-09-18 22:47:34.640625,-2.14
2022-09-18 22:47:34.656250,-1.48
2022-09-18 22:47:34.671875,-0.94
2022-09-18 22:47:34.687500,-0.63
2022-09-18 22:47:34.703125,-0.58
2022-09-18 22:47:34.718750,-0.73
2022-09-18 22:47:34.734375,-0.91
2022-09-18 22:47:34.750000,-0.98
2022-09-18 22:47:34.765625,-0.83
2022-09-18 22:47:34.781250,-0.49
2022-09-18 22:47:34.796875,-0.08
2022-09-18 22:47:34.812500,0.2
2022-09-18 22:47:34.828125,0.19
2022-09-18 22:47:34.843750,-0.19
2022-09-18 22:47:34.859375,-0.83
2022-09-18 22:47:34.875000,-1.53
2022-09-18 22:47:34.890625,-2.04
2022-09-18 22:47:34.906250,-2.19
2022-09-18 22:47:34.921875,-1.99
2022-09-18 22:47:34.937500,-1.57
2022-09-18 22:47:34.953125,-1.16
2022-09-18 22:47:34.968750,-0.91
2022-09-18 22:47:34.984375,-0.89
2022-09-18 22:47:35.000000,-1.04
2022-09-18 22:47:35.015625,-1.23
2022-09-18 22:47:35.031250,-1.32
2022-09-18 22:47:35.046875,-1.21
2022-09-18 22:47:35.062500,-0.92
2022-09-18 22:47:35.078125,-0.5
2022-09-18 22:47:35.093750,-0.07
2022-09-18 22:47:35.109375,0.24
2022-09-18 22:47:35.125000,0.39
2022-09-18 22:47:35.140625,0.36
2022-09-18 22:47:35.156250,0.22
2022-09-18 22:47:35.171875,0.06
2022-09-18 22:47:35.187500,-0.06
2022-09-18 22:47:35.203125,-0.14
2022-09-18 22:47:35.218750,-0.21
2022-09-18 22:47:35.234375,-0.33
2022-09-18 22:47:35.250000,-0.52
2022-09-18 22:47:35.265625,-0.76
2022-09-18 22:47:35.281250,-1.0
2022-09-18 22:47:35.296875,-1.19
2022-09-18 22:47:35.312500,-1.3
2022-09-18 22:47:35.328125,-1.32
2022-09-18 22:47:35.343750,-1.28
2022-09-18 22:47:35.359375,-1.23
2022-09-18 22:47:35.375000,-1.17
2022-09-18 22:47:35.390625,-1.12
2022-09-18 22:47:35.406250,-1.07
2022-09-18 22:47:35.421875,-1.06
2022-09-18 22:47:35.437500,-1.11
2022-09-18 22:47:35.453125,-1.25
2022-09-18 22:47:35.468750,-1.49
2022-09-18 22:47:35.484375,-1.76
2022-09-18 22:47:35.500000,-2.02
2022-09-18 22:47:35.515625,-2.17
2022-09-18 22:47:35.531250,-2.22
2022-09-18 22:47:35.546875,-2.21
2022-09-18 22:47:35.562500,-2.26
2022-09-18 22:47:35.578125,-2.44
2022-09-18 22:47:35.593750,-2.7
2022-09-18 22:47:35.609375,-2.93
2022-09-18 22:47:35.625000,-2.98
2022-09-18 22:47:35.640625,-2.75
2022-09-18 22:47:35.656250,-2.3
2022-09-18 22:47:35.671875,-1.82
2022-09-18 22:47:35.687500,-1.5
2022-09-18 22:47:35.703125,-1.42
2022-09-18 22:47:35.718750,-1.56
2022-09-18 22:47:35.734375,-1.73
2022-09-18 22:47:35.750000,-1.8
2022-09-18 22:47:35.765625,-1.67
2022-09-18 22:47:35.781250,-1.41
2022-09-18 22:47:35.796875,-1.11
2022-09-18 22:47:35.812500,-0.86
2022-09-18 22:47:35.828125,-0.7
2022-09-18 22:47:35.843750,-0.58
2022-09-18 22:47:35.859375,-0.45
2022-09-18 22:47:35.875000,-0.27
2022-09-18 22:47:35.890625,-0.05
2022-09-18 22:47:35.906250,0.16
2022-09-18 22:47:35.921875,0.3
2022-09-18 22:47:35.937500,0.34
2022-09-18 22:47:35.953125,0.26
2022-09-18 22:47:35.968750,0.1
2022-09-18 22:47:35.984375,-0.13
2022-09-18 22:47:36.000000,-0.38
2022-09-18 22:47:36.015625,-0.63
2022-09-18 22:47:36.031250,-0.84
2022-09-18 22:47:36.046875,-0.96
2022-09-18 22:47:36.062500,-0.96
2022-09-18 22:47:36.078125,-0.78
2022-09-18 22:47:36.093750,-0.44
2022-09-18 22:47:36.109375,-0.02
2022-09-18 22:47:36.125000,0.34
2022-09-18 22:47:36.140625,0.48
2022-09-18 22:47:36.156250,0.33
2022-09-18 22:47:36.171875,-0.14
2022-09-18 22:47:36.187500,-0.8
2022-09-18 22:47:36.203125,-1.46
2022-09-18 22:47:36.218750,-1.93
2022-09-18 22:47:36.234375,-2.1
2022-09-18 22:47:36.250000,-1.93
2022-09-18 22:47:36.265625,-1.49
2022-09-18 22:47:36.281250,-0.94
2022-09-18 22:47:36.296875,-0.43
2022-09-18 22:47:36.312500,-0.12
2022-09-18 22:47:36.328125,-0.06
2022-09-18 22:47:36.343750,-0.25
2022-09-18 22:47:36.359375,-0.63
2022-09-18 22:47:36.375000,-1.1
2022-09-18 22:47:36.390625,-1.55
2022-09-18 22:47:36.406250,-1.9
2022-09-18 22:47:36.421875,-2.1
2022-09-18 22:47:36.437500,-2.09
2022-09-18 22:47:36.453125,-1.9
2022-09-18 22:47:36.468750,-1.55
2022-09-18 22:47:36.484375,-1.13
2022-09-18 22:47:36.500000,-0.74
2022-09-18 22:47:36.515625,-0.51
2022-09-18 22:47:36.531250,-0.49
2022-09-18 22:47:36.546875,-0.67
2022-09-18 22:47:36.562500,-0.99
2022-09-18 22:47:36.578125,-1.32
2022-09-18 22:47:36.593750,-1.53
2022-09-18 22:47:36.609375,-1.53
2022-09-18 22:47:36.625000,-1.32
2022-09-18 22:47:36.640625,-0.97
2022-09-18 22:47:36.656250,-0.6
2022-09-18 22:47:36.671875,-0.33
2022-09-18 22:47:36.687500,-0.19
2022-09-18 22:47:36.703125,-0.16
2022-09-18 22:47:36.718750,-0.16
2022-09-18 22:47:36.734375,-0.14
2022-09-18 22:47:36.750000,-0.06
2022-09-18 22:47:36.765625,0.02
2022-09-18 22:47:36.781250,0.03
2022-09-18 22:47:36.796875,-0.04
2022-09-18 22:47:36.812500,-0.15
2022-09-18 22:47:36.828125,-0.24
2022-09-18 22:47:36.843750,-0.22
2022-09-18 22:47:36.859375,-0.1
2022-09-18 22:47:36.875000,0.05
2022-09-18 22:47:36.890625,0.12
2022-09-18 22:47:36.906250,0.03
2022-09-18 22:47:36.921875,-0.22
2022-09-18 22:47:36.937500,-0.55
2022-09-18 22:47:36.953125,-0.86
2022-09-18 22:47:36.968750,-1.01
2022-09-18 22:47:36.984375,-0.94
2022-09-18 22:47:37.000000,-0.66
2022-09-18 22:47:37.015625,-0.27
2022-09-18 22:47:37.031250,0.11
2022-09-18 22:47:37.046875,0.38
2022-09-18 22:47:37.062500,0.46
2022-09-18 22:47:37.078125,0.36
2022-09-18 22:47:37.093750,0.13
2022-09-18 22:47:37.109375,-0.13
2022-09-18 22:47:37.125000,-0.36
2022-09-18 22:47:37.140625,-0.5
2022-09-18 22:47:37.156250,-0.53
2022-09-18 22:47:37.171875,-0.46
2022-09-18 22:47:37.187500,-0.33
2022-09-18 22:47:37.203125,-0.2
2022-09-18 22:47:37.218750,-0.14
2022-09-18 22:47:37.234375,-0.23
2022-09-18 22:47:37.250000,-0.49
2022-09-18 22:47:37.265625,-0.85
2022-09-18 22:47:37.281250,-1.17
2022-09-18 22:47:37.296875,-1.3
2022-09-18 22:47:37.312500,-1.15
2022-09-18 22:47:37.328125,-0.75
2022-09-18 22:47:37.343750,-0.26
2022-09-18 22:47:37.359375,0.08
2022-09-18 22:47:37.375000,0.11
2022-09-18 22:47:37.390625,-0.23
2022-09-18 22:47:37.406250,-0.83
2022-09-18 22:47:37.421875,-1.48
2022-09-18 22:47:37.437500,-1.99
2022-09-18 22:47:37.453125,-2.22
2022-09-18 22:47:37.468750,-2.11
2022-09-18 22:47:37.484375,-1.71
2022-09-18 22:47:37.500000,-1.09
2022-09-18 22:47:37.515625,-0.37
2022-09-18 22:47:37.531250,0.3
2022-09-18 22:47:37.546875,0.78
2022-09-18 22:47:37.562500,0.97
2022-09-18 22:47:37.578125,0.87
2022-09-18 22:47:37.593750,0.58
2022-09-18 22:47:37.609375,0.24
2022-09-18 22:47:37.625000,-0.02
2022-09-18 22:47:37.640625,-0.12
2022-09-18 22:47:37.656250,-0.05
2022-09-18 22:47:37.671875,0.16
2022-09-18 22:47:37.687500,0.49
2022-09-18 22:47:37.703125,0.9
2022-09-18 22:47:37.718750,1.35
2022-09-18 22:47:37.734375,1.71
2022-09-18 22:47:37.750000,1.84
2022-09-18 22:47:37.765625,1.64
2022-09-18 22:47:37.781250,1.09
2022-09-18 22:47:37.796875,0.33
2022-09-18 22:47:37.812500,-0.44
2022-09-18 22:47:37.828125,-0.99
2022-09-18 22:47:37.843750,-1.22
2022-09-18 22:47:37.859375,-1.15
2022-09-18 22:47:37.875000,-0.89
2022-09-18 22:47:37.890625,-0.59
2022-09-18 22:47:37.906250,-0.34
2022-09-18 22:47:37.921875,-0.16
2022-09-18 22:47:37.937500,-0.04
2022-09-18 22:47:37.953125,0.03
2022-09-18 22:47:37.968750,0.06
2022-09-18 22:47:37.984375,-0.0
2022-09-18 22:47:38.000000,-0.17
2022-09-18 22:47:38.015625,-0.41
2022-09-18 22:47:38.031250,-0.66
2022-09-18 22:47:38.046875,-0.85
2022-09-18 22:47:38.062500,-0.92
2022-09-18 22:47:38.078125,-0.9
2022-09-18 22:47:38.093750,-0.86
2022-09-18 22:47:38.109375,-0.88
2022-09-18 22:47:38.125000,-0.98
2022-09-18 22:47:38.140625,-1.14
2022-09-18 22:47:38.156250,-1.31
2022-09-18 22:47:38.171875,-1.41
2022-09-18 22:47:38.187500,-1.43
2022-09-18 22:47:38.203125,-1.38
2022-09-18 22:47:38.218750,-1.27
2022-09-18 22:47:38.234375,-1.14
2022-09-18 22:47:38.250000,-0.98
2022-09-18 22:47:38.265625,-0.8
2022-09-18 22:47:38.281250,-0.62
2022-09-18 22:47:38.296875,-0.47
2022-09-18 22:47:38.312500,-0.37
2022-09-18 22:47:38.328125,-0.36
2022-09-18 22:47:38.343750,-0.46
2022-09-18 22:47:38.359375,-0.6
2022-09-18 22:47:38.375000,-0.75
2022-09-18 22:47:38.390625,-0.82
2022-09-18 22:47:38.406250,-0.79
2022-09-18 22:47:38.421875,-0.69
2022-09-18 22:47:38.437500,-0.58
2022-09-18 22:47:38.453125,-0.55
2022-09-18 22:47:38.468750,-0.63
2022-09-18 22:47:38.484375,-0.77
2022-09-18 22:47:38.500000,-0.87
2022-09-18 22:47:38.515625,-0.83
2022-09-18 22:47:38.531250,-0.58
2022-09-18 22:47:38.546875,-0.18
2022-09-18 22:47:38.562500,0.25
2022-09-18 22:47:38.578125,0.62
2022-09-18 22:47:38.593750,0.88
2022-09-18 22:47:38.609375,1.05
2022-09-18 22:47:38.625000,1.17
2022-09-18 22:47:38.640625,1.18
2022-09-18 22:47:38.656250,1.02
2022-09-18 22:47:38.671875,0.62
2022-09-18 22:47:38.687500,0.03
2022-09-18 22:47:38.703125,-0.57
2022-09-18 22:47:38.718750,-0.92
2022-09-18 22:47:38.734375,-0.85
2022-09-18 22:47:38.750000,-0.35
2022-09-18 22:47:38.765625,0.38
2022-09-18 22:47:38.781250,1.07
2022-09-18 22:47:38.796875,1.49
2022-09-18 22:47:38.812500,1.57
2022-09-18 22:47:38.828125,1.4
2022-09-18 22:47:38.843750,1.16
2022-09-18 22:47:38.859375,0.98
2022-09-18 22:47:38.875000,0.89
2022-09-18 22:47:38.890625,0.85
2022-09-18 22:47:38.906250,0.79
2022-09-18 22:47:38.921875,0.7
2022-09-18 22:47:38.937500,0.62
2022-09-18 22:47:38.953125,0.62
2022-09-18 22:47:38.968750,0.7
2022-09-18 22:47:38.984375,0.84
2022-09-18 22:47:39.000000,0.95
2022-09-18 22:47:39.015625,0.89
2022-09-18 22:47:39.031250,0.59
2022-09-18 22:47:39.046875,0.06
2022-09-18 22:47:39.062500,-0.57
2022-09-18 22:47:39.078125,-1.11
2022-09-18 22:47:39.093750,-1.38
2022-09-18 22:47:39.109375,-1.26
2022-09-18 22:47:39.125000,-0.8
2022-09-18 22:47:39.140625,-0.14
2022-09-18 22:47:39.156250,0.48
2022-09-18 22:47:39.171875,0.87
2022-09-18 22:47:39.187500,0.94
2022-09-18 22:47:39.203125,0.73
2022-09-18 22:47:39.218750,0.37
2022-09-18 22:47:39.234375,-0.01
2022-09-18 22:47:39.250000,-0.33
2022-09-18 22:47:39.265625,-0.59
2022-09-18 22:47:39.281250,-0.83
2022-09-18 22:47:39.296875,-1.06
2022-09-18 22:47:39.312500,-1.23
2022-09-18 22:47:39.328125,-1.24
2022-09-18 22:47:39.343750,-1.01
2022-09-18 22:47:39.359375,-0.57
2022-09-18 22:47:39.375000,-0.05
2022-09-18 22:47:39.390625,0.37
2022-09-18 22:47:39.406250,0.52
2022-09-18 22:47:39.421875,0.39
2022-09-18 22:47:39.437500,0.1
2022-09-18 22:47:39.453125,-0.14
2022-09-18 22:47:39.468750,-0.14
2022-09-18 22:47:39.484375,0.15
2022-09-18 22:47:39.500000,0.67
2022-09-18 22:47:39.515625,1.28
2022-09-18 22:47:39.531250,1.81
2022-09-18 22:47:39.546875,2.2
2022-09-18 22:47:39.562500,2.44
2022-09-18 22:47:39.578125,2.54
2022-09-18 22:47:39.593750,2.53
2022-09-18 22:47:39.609375,2.43
2022-09-18 22:47:39.625000,2.26
2022-09-18 22:47:39.640625,2.04
2022-09-18 22:47:39.656250,1.82
2022-09-18 22:47:39.671875,1.61
2022-09-18 22:47:39.687500,1.43
2022-09-18 22:47:39.703125,1.23
2022-09-18 22:47:39.718750,0.98
2022-09-18 22:47:39.734375,0.63
2022-09-18 22:47:39.750000,0.15
2022-09-18 22:47:39.765625,-0.49
2022-09-18 22:47:39.781250,-1.33
2022-09-18 22:47:39.796875,-2.31
2022-09-18 22:47:39.812500,-3.36
2022-09-18 22:47:39.828125,-4.28
2022-09-18 22:47:39.843750,-4.91
2022-09-18 22:47:39.859375,-5.18
2022-09-18 22:47:39.875000,-5.12
2022-09-18 22:47:39.890625,-4.91
2022-09-18 22:47:39.906250,-4.75
2022-09-18 22:47:39.921875,-4.76
2022-09-18 22:47:39.937500,-4.92
2022-09-18 22:47:39.953125,-5.13
2022-09-18 22:47:39.968750,-5.25
2022-09-18 22:47:39.984375,-5.21
2022-09-18 22:47:40.000000,-5.02
2022-09-18 22:47:40.015625,-4.78
2022-09-18 22:47:40.031250,-4.57
2022-09-18 22:47:40.046875,-4.47
2022-09-18 22:47:40.062500,-4.45
2022-09-18 22:47:40.078125,-4.49
2022-09-18 22:47:40.093750,-4.54
2022-09-18 22:47:40.109375,-4.62
2022-09-18 22:47:40.125000,-4.76
2022-09-18 22:47:40.140625,-4.96
2022-09-18 22:47:40.156250,-5.22
2022-09-18 22:47:40.171875,-5.47
2022-09-18 22:47:40.187500,-5.62
2022-09-18 22:47:40.203125,-5.58
2022-09-18 22:47:40.218750,-5.29
2022-09-18 22:47:40.234375,-4.75
2022-09-18 22:47:40.250000,-4.04
2022-09-18 22:47:40.265625,-3.23
2022-09-18 22:47:40.281250,-2.38
2022-09-18 22:47:40.296875,-1.56
2022-09-18 22:47:40.312500,-0.8
2022-09-18 22:47:40.328125,-0.14
2022-09-18 22:47:40.343750,0.35
2022-09-18 22:47:40.359375,0.68
2022-09-18 22:47:40.375000,0.87
2022-09-18 22:47:40.390625,1.03
2022-09-18 22:47:40.406250,1.28
2022-09-18 22:47:40.421875,1.69
2022-09-18 22:47:40.437500,2.28
2022-09-18 22:47:40.453125,2.97
2022-09-18 22:47:40.468750,3.64
2022-09-18 22:47:40.484375,4.19
2022-09-18 22:47:40.500000,4.57
2022-09-18 22:47:40.515625,4.78
2022-09-18 22:47:40.531250,4.83
2022-09-18 22:47:40.546875,4.76
2022-09-18 22:47:40.562500,4.59
2022-09-18 22:47:40.578125,4.42
2022-09-18 22:47:40.593750,4.3
2022-09-18 22:47:40.609375,4.3
2022-09-18 22:47:40.625000,4.41
2022-09-18 22:47:40.640625,4.55
2022-09-18 22:47:40.656250,4.6
2022-09-18 22:47:40.671875,4.48
2022-09-18 22:47:40.687500,4.17
2022-09-18 22:47:40.703125,3.72
2022-09-18 22:47:40.718750,3.2
2022-09-18 22:47:40.734375,2.67
2022-09-18 22:47:40.750000,2.15
2022-09-18 22:47:40.765625,1.65
2022-09-18 22:47:40.781250,1.25
2022-09-18 22:47:40.796875,1.01
2022-09-18 22:47:40.812500,0.95
2022-09-18 22:47:40.828125,1.0
2022-09-18 22:47:40.843750,1.01
2022-09-18 22:47:40.859375,0.82
2022-09-18 22:47:40.875000,0.34
2022-09-18 22:47:40.890625,-0.37
2022-09-18 22:47:40.906250,-1.21
2022-09-18 22:47:40.921875,-2.03
2022-09-18 22:47:40.937500,-2.73
2022-09-18 22:47:40.953125,-3.27
2022-09-18 22:47:40.968750,-3.65
2022-09-18 22:47:40.984375,-3.88
2022-09-18 22:47:41.000000,-3.96
2022-09-18 22:47:41.015625,-3.9
2022-09-18 22:47:41.031250,-3.71
2022-09-18 22:47:41.046875,-3.4
2022-09-18 22:47:41.062500,-3.0
2022-09-18 22:47:41.078125,-2.45
2022-09-18 22:47:41.093750,-1.73
2022-09-18 22:47:41.109375,-0.8
2022-09-18 22:47:41.125000,0.29
2022-09-18 22:47:41.140625,1.42
2022-09-18 22:47:41.156250,2.45
2022-09-18 22:47:41.171875,3.28
2022-09-18 22:47:41.187500,3.87
2022-09-18 22:47:41.203125,4.24
2022-09-18 22:47:41.218750,4.44
2022-09-18 22:47:41.234375,4.51
2022-09-18 22:47:41.250000,4.51
2022-09-18 22:47:41.265625,4.45
2022-09-18 22:47:41.281250,4.37
2022-09-18 22:47:41.296875,4.29
2022-09-18 22:47:41.312500,4.24
2022-09-18 22:47:41.328125,4.24
2022-09-18 22:47:41.343750,4.29
2022-09-18 22:47:41.359375,4.36
2022-09-18 22:47:41.375000,4.37
2022-09-18 22:47:41.390625,4.27
2022-09-18 22:47:41.406250,4.03
2022-09-18 22:47:41.421875,3.66
2022-09-18 22:47:41.437500,3.22
2022-09-18 22:47:41.453125,2.75
2022-09-18 22:47:41.468750,2.33
2022-09-18 22:47:41.484375,1.99
2022-09-18 22:47:41.500000,1.72
2022-09-18 22:47:41.515625,1.49
2022-09-18 22:47:41.531250,1.28
2022-09-18 22:47:41.546875,1.04
2022-09-18 22:47:41.562500,0.76
2022-09-18 22:47:41.578125,0.43
2022-09-18 22:47:41.593750,0.1
2022-09-18 22:47:41.609375,-0.2
2022-09-18 22:47:41.625000,-0.41
2022-09-18 22:47:41.640625,-0.48
2022-09-18 22:47:41.656250,-0.44
2022-09-18 22:47:41.671875,-0.35
2022-09-18 22:47:41.687500,-0.34
2022-09-18 22:47:41.703125,-0.48
2022-09-18 22:47:41.718750,-0.8
2022-09-18 22:47:41.734375,-1.26
2022-09-18 22:47:41.750000,-1.85
2022-09-18 22:47:41.765625,-2.54
2022-09-18 22:47:41.781250,-3.32
2022-09-18 22:47:41.796875,-4.18
2022-09-18 22:47:41.812500,-5.06
2022-09-18 22:47:41.828125,-5.82
2022-09-18 22:47:41.843750,-6.3
2022-09-18 22:47:41.859375,-6.33
2022-09-18 22:47:41.875000,-5.87
2022-09-18 22:47:41.890625,-5.0
2022-09-18 22:47:41.906250,-3.91
2022-09-18 22:47:41.921875,-2.83
2022-09-18 22:47:41.937500,-1.93
2022-09-18 22:47:41.953125,-1.27
2022-09-18 22:47:41.968750,-0.76
2022-09-18 22:47:41.984375,-0.23
2022-09-18 22:47:42.000000,0.45
2022-09-18 22:47:42.015625,1.28
2022-09-18 22:47:42.031250,2.18
2022-09-18 22:47:42.046875,2.95
2022-09-18 22:47:42.062500,3.46
2022-09-18 22:47:42.078125,3.71
2022-09-18 22:47:42.093750,3.83
2022-09-18 22:47:42.109375,4.01
2022-09-18 22:47:42.125000,4.33
2022-09-18 22:47:42.140625,4.75
2022-09-18 22:47:42.156250,5.07
2022-09-18 22:47:42.171875,5.1
2022-09-18 22:47:42.187500,4.75
2022-09-18 22:47:42.203125,4.14
2022-09-18 22:47:42.218750,3.52
2022-09-18 22:47:42.234375,3.12
2022-09-18 22:47:42.250000,3.07
2022-09-18 22:47:42.265625,3.25
2022-09-18 22:47:42.281250,3.47
2022-09-18 22:47:42.296875,3.49
2022-09-18 22:47:42.312500,3.21
2022-09-18 22:47:42.328125,2.69
2022-09-18 22:47:42.343750,2.09
2022-09-18 22:47:42.359375,1.57
2022-09-18 22:47:42.375000,1.21
2022-09-18 22:47:42.390625,0.98
2022-09-18 22:47:42.406250,0.78
2022-09-18 22:47:42.421875,0.5
2022-09-18 22:47:42.437500,0.09
2022-09-18 22:47:42.453125,-0.39
2022-09-18 22:47:42.468750,-0.84
2022-09-18 22:47:42.484375,-1.13
2022-09-18 22:47:42.500000,-1.24
2022-09-18 22:47:42.515625,-1.21
2022-09-18 22:47:42.531250,-1.18
2022-09-18 22:47:42.546875,-1.26
2022-09-18 22:47:42.562500,-1.51
2022-09-18 22:47:42.578125,-1.91
2022-09-18 22:47:42.593750,-2.41
2022-09-18 22:47:42.609375,-2.95
2022-09-18 22:47:42.625000,-3.57
2022-09-18 22:47:42.640625,-4.3
2022-09-18 22:47:42.656250,-5.16
2022-09-18 22:47:42.671875,-6.04
2022-09-18 22:47:42.687500,-6.76
2022-09-18 22:47:42.703125,-7.11
2022-09-18 22:47:42.718750,-6.97
2022-09-18 22:47:42.734375,-6.36
2022-09-18 22:47:42.750000,-5.42
2022-09-18 22:47:42.765625,-4.36
2022-09-18 22:47:42.781250,-3.34
2022-09-18 22:47:42.796875,-2.38
2022-09-18 22:47:42.812500,-1.47
2022-09-18 22:47:42.828125,-0.52
2022-09-18 22:47:42.843750,0.5
2022-09-18 22:47:42.859375,1.55
2022-09-18 22:47:42.875000,2.51
2022-09-18 22:47:42.890625,3.27
2022-09-18 22:47:42.906250,3.72
2022-09-18 22:47:42.921875,3.89
2022-09-18 22:47:42.937500,3.84
2022-09-18 22:47:42.953125,3.74
2022-09-18 22:47:42.968750,3.72
2022-09-18 22:47:42.984375,3.85
2022-09-18 22:47:43.000000,4.13
2022-09-18 22:47:43.015625,4.46
2022-09-18 22:47:43.031250,4.73
2022-09-18 22:47:43.046875,4.82
2022-09-18 22:47:43.062500,4.69
2022-09-18 22:47:43.078125,4.37
2022-09-18 22:47:43.093750,3.92
2022-09-18 22:47:43.109375,3.45
2022-09-18 22:47:43.125000,3.04
2022-09-18 22:47:43.140625,2.78
2022-09-18 22:47:43.156250,2.65
2022-09-18 22:47:43.171875,2.62
2022-09-18 22:47:43.187500,2.64
2022-09-18 22:47:43.203125,2.63
2022-09-18 22:47:43.218750,2.55
2022-09-18 22:47:43.234375,2.38
2022-09-18 22:47:43.250000,2.12
2022-09-18 22:47:43.265625,1.78
2022-09-18 22:47:43.281250,1.35
2022-09-18 22:47:43.296875,0.85
2022-09-18 22:47:43.312500,0.27
2022-09-18 22:47:43.328125,-0.35
2022-09-18 22:47:43.343750,-0.95
2022-09-18 22:47:43.359375,-1.44
2022-09-18 22:47:43.375000,-1.75
2022-09-18 22:47:43.390625,-1.86
2022-09-18 22:47:43.406250,-1.84
2022-09-18 22:47:43.421875,-1.8
2022-09-18 22:47:43.437500,-1.87
2022-09-18 22:47:43.453125,-2.16
2022-09-18 22:47:43.468750,-2.7
2022-09-18 22:47:43.484375,-3.48
2022-09-18 22:47:43.500000,-4.41
2022-09-18 22:47:43.515625,-5.37
2022-09-18 22:47:43.531250,-6.19
2022-09-18 22:47:43.546875,-6.72
2022-09-18 22:47:43.562500,-6.84
2022-09-18 22:47:43.578125,-6.51
2022-09-18 22:47:43.593750,-5.74
2022-09-18 22:47:43.609375,-4.64
2022-09-18 22:47:43.625000,-3.31
2022-09-18 22:47:43.640625,-1.89
2022-09-18 22:47:43.656250,-0.51
2022-09-18 22:47:43.671875,0.72
2022-09-18 22:47:43.687500,1.71
2022-09-18 22:47:43.703125,2.4
2022-09-18 22:47:43.718750,2.76
2022-09-18 22:47:43.734375,2.87
2022-09-18 22:47:43.750000,2.84
2022-09-18 22:47:43.765625,2.79
2022-09-18 22:47:43.781250,2.82
2022-09-18 22:47:43.796875,2.93
2022-09-18 22:47:43.812500,3.09
2022-09-18 22:47:43.828125,3.24
2022-09-18 22:47:43.843750,3.32
2022-09-18 22:47:43.859375,3.34
2022-09-18 22:47:43.875000,3.36
2022-09-18 22:47:43.890625,3.42
2022-09-18 22:47:43.906250,3.52
2022-09-18 22:47:43.921875,3.61
2022-09-18 22:47:43.937500,3.64
2022-09-18 22:47:43.953125,3.57
2022-09-18 22:47:43.968750,3.41
2022-09-18 22:47:43.984375,3.21
2022-09-18 22:47:44.000000,3.04
2022-09-18 22:47:44.015625,2.92
2022-09-18 22:47:44.031250,2.83
2022-09-18 22:47:44.046875,2.72
2022-09-18 22:47:44.062500,2.52
2022-09-18 22:47:44.078125,2.2
2022-09-18 22:47:44.093750,1.77
2022-09-18 22:47:44.109375,1.27
2022-09-18 22:47:44.125000,0.73
2022-09-18 22:47:44.140625,0.19
2022-09-18 22:47:44.156250,-0.34
2022-09-18 22:47:44.171875,-0.85
2022-09-18 22:47:44.187500,-1.38
2022-09-18 22:47:44.203125,-1.91
2022-09-18 22:47:44.218750,-2.46
2022-09-18 22:47:44.234375,-2.98
2022-09-18 22:47:44.250000,-3.45
2022-09-18 22:47:44.265625,-3.81
2022-09-18 22:47:44.281250,-4.05
2022-09-18 22:47:44.296875,-4.23
2022-09-18 22:47:44.312500,-4.4
2022-09-18 22:47:44.328125,-4.64
2022-09-18 22:47:44.343750,-5.0
2022-09-18 22:47:44.359375,-5.44
2022-09-18 22:47:44.375000,-5.87
2022-09-18 22:47:44.390625,-6.18
2022-09-18 22:47:44.406250,-6.25
2022-09-18 22:47:44.421875,-6.06
2022-09-18 22:47:44.437500,-5.59
2022-09-18 22:47:44.453125,-4.91
2022-09-18 22:47:44.468750,-4.07
2022-09-18 22:47:44.484375,-3.16
2022-09-18 22:47:44.500000,-2.21
2022-09-18 22:47:44.515625,-1.26
2022-09-18 22:47:44.531250,-0.32
2022-09-18 22:47:44.546875,0.58
2022-09-18 22:47:44.562500,1.43
2022-09-18 22:47:44.578125,2.16
2022-09-18 22:47:44.593750,2.71
2022-09-18 22:47:44.609375,3.06
2022-09-18 22:47:44.625000,3.21
2022-09-18 22:47:44.640625,3.25
2022-09-18 22:47:44.656250,3.28
2022-09-18 22:47:44.671875,3.37
2022-09-18 22:47:44.687500,3.52
2022-09-18 22:47:44.703125,3.66
2022-09-18 22:47:44.718750,3.74
2022-09-18 22:47:44.734375,3.75
2022-09-18 22:47:44.750000,3.74
2022-09-18 22:47:44.765625,3.79
2022-09-18 22:47:44.781250,3.93
2022-09-18 22:47:44.796875,4.08
2022-09-18 22:47:44.812500,4.15
2022-09-18 22:47:44.828125,4.02
2022-09-18 22:47:44.843750,3.7
2022-09-18 22:47:44.859375,3.26
2022-09-18 22:47:44.875000,2.85
2022-09-18 22:47:44.890625,2.54
2022-09-18 22:47:44.906250,2.32
2022-09-18 22:47:44.921875,2.11
2022-09-18 22:47:44.937500,1.83
2022-09-18 22:47:44.953125,1.43
2022-09-18 22:47:44.968750,0.97
2022-09-18 22:47:44.984375,0.52
2022-09-18 22:47:45.000000,0.16
2022-09-18 22:47:45.015625,-0.08
2022-09-18 22:47:45.031250,-0.24
2022-09-18 22:47:45.046875,-0.38
2022-09-18 22:47:45.062500,-0.53
2022-09-18 22:47:45.078125,-0.72
2022-09-18 22:47:45.093750,-0.96
2022-09-18 22:47:45.109375,-1.27
2022-09-18 22:47:45.125000,-1.71
2022-09-18 22:47:45.140625,-2.33
2022-09-18 22:47:45.156250,-3.15
2022-09-18 22:47:45.171875,-4.09
2022-09-18 22:47:45.187500,-5.02
2022-09-18 22:47:45.203125,-5.77
2022-09-18 22:47:45.218750,-6.25
2022-09-18 22:47:45.234375,-6.41
2022-09-18 22:47:45.250000,-6.29
2022-09-18 22:47:45.265625,-5.93
2022-09-18 22:47:45.281250,-5.33
2022-09-18 22:47:45.296875,-4.46
2022-09-18 22:47:45.312500,-3.31
2022-09-18 22:47:45.328125,-1.91
2022-09-18 22:47:45.343750,-0.42
2022-09-18 22:47:45.359375,0.97
2022-09-18 22:47:45.375000,2.07
2022-09-18 22:47:45.390625,2.82
2022-09-18 22:47:45.406250,3.22
2022-09-18 22:47:45.421875,3.34
2022-09-18 22:47:45.437500,3.23
2022-09-18 22:47:45.453125,2.91
2022-09-18 22:47:45.468750,2.48
2022-09-18 22:47:45.484375,2.04
2022-09-18 22:47:45.500000,1.79
2022-09-18 22:47:45.515625,1.83
2022-09-18 22:47:45.531250,2.2
2022-09-18 22:47:45.546875,2.72
2022-09-18 22:47:45.562500,3.16
2022-09-18 22:47:45.578125,3.32
2022-09-18 22:47:45.593750,3.17
2022-09-18 22:47:45.609375,2.87
2022-09-18 22:47:45.625000,2.65
2022-09-18 22:47:45.640625,2.65
2022-09-18 22:47:45.656250,2.85
2022-09-18 22:47:45.671875,3.07
2022-09-18 22:47:45.687500,3.11
2022-09-18 22:47:45.703125,2.87
2022-09-18 22:47:45.718750,2.39
2022-09-18 22:47:45.734375,1.84
2022-09-18 22:47:45.750000,1.41
2022-09-18 22:47:45.765625,1.18
2022-09-18 22:47:45.781250,1.12
2022-09-18 22:47:45.796875,1.14
2022-09-18 22:47:45.812500,1.11
2022-09-18 22:47:45.828125,1.02
2022-09-18 22:47:45.843750,0.87
2022-09-18 22:47:45.859375,0.73
2022-09-18 22:47:45.875000,0.63
2022-09-18 22:47:45.890625,0.53
2022-09-18 22:47:45.906250,0.34
2022-09-18 22:47:45.921875,-0.01
2022-09-18 22:47:45.937500,-0.56
2022-09-18 22:47:45.953125,-1.23
2022-09-18 22:47:45.968750,-1.9
2022-09-18 22:47:45.984375,-2.44
2022-09-18 22:47:46.000000,-2.8
2022-09-18 22:47:46.015625,-3.03
2022-09-18 22:47:46.031250,-3.25
2022-09-18 22:47:46.046875,-3.56
2022-09-18 22:47:46.062500,-4.02
2022-09-18 22:47:46.078125,-4.56
2022-09-18 22:47:46.093750,-5.11
2022-09-18 22:47:46.109375,-5.58
2022-09-18 22:47:46.125000,-5.93
2022-09-18 22:47:46.140625,-6.14
2022-09-18 22:47:46.156250,-6.22
2022-09-18 22:47:46.171875,-6.13
2022-09-18 22:47:46.187500,-5.8
2022-09-18 22:47:46.203125,-5.15
2022-09-18 22:47:46.218750,-4.18
2022-09-18 22:47:46.234375,-2.96
2022-09-18 22:47:46.250000,-1.65
2022-09-18 22:47:46.265625,-0.42
2022-09-18 22:47:46.281250,0.59
2022-09-18 22:47:46.296875,1.32
2022-09-18 22:47:46.312500,1.82
2022-09-18 22:47:46.328125,2.15
2022-09-18 22:47:46.343750,2.44
2022-09-18 22:47:46.359375,2.78
2022-09-18 22:47:46.375000,3.19
2022-09-18 22:47:46.390625,3.66
2022-09-18 22:47:46.406250,4.1
2022-09-18 22:47:46.421875,4.42
2022-09-18 22:47:46.437500,4.52
2022-09-18 22:47:46.453125,4.38
2022-09-18 22:47:46.468750,4.04
2022-09-18 22:47:46.484375,3.58
2022-09-18 22:47:46.500000,3.13
2022-09-18 22:47:46.515625,2.79
2022-09-18 22:47:46.531250,2.59
2022-09-18 22:47:46.546875,2.54
2022-09-18 22:47:46.562500,2.57
2022-09-18 22:47:46.578125,2.63
2022-09-18 22:47:46.593750,2.63
2022-09-18 22:47:46.609375,2.54
2022-09-18 22:47:46.625000,2.35
2022-09-18 22:47:46.640625,2.06
2022-09-18 22:47:46.656250,1.7
2022-09-18 22:47:46.671875,1.3
2022-09-18 22:47:46.687500,0.94
2022-09-18 22:47:46.703125,0.69
2022-09-18 22:47:46.718750,0.57
2022-09-18 22:47:46.734375,0.57
2022-09-18 22:47:46.750000,0.63
2022-09-18 22:47:46.765625,0.68
2022-09-18 22:47:46.781250,0.69
2022-09-18 22:47:46.796875,0.64
2022-09-18 22:47:46.812500,0.53
2022-09-18 22:47:46.828125,0.37
2022-09-18 22:47:46.843750,0.14
2022-09-18 22:47:46.859375,-0.19
2022-09-18 22:47:46.875000,-0.64
2022-09-18 22:47:46.890625,-1.16
2022-09-18 22:47:46.906250,-1.73
2022-09-18 22:47:46.921875,-2.28
2022-09-18 22:47:46.937500,-2.81
2022-09-18 22:47:46.953125,-3.34
2022-09-18 22:47:46.968750,-3.89
2022-09-18 22:47:46.984375,-4.44
2022-09-18 22:47:47.000000,-4.91
2022-09-18 22:47:47.015625,-5.2
2022-09-18 22:47:47.031250,-5.24
2022-09-18 22:47:47.046875,-5.0
2022-09-18 22:47:47.062500,-4.55
2022-09-18 22:47:47.078125,-3.98
2022-09-18 22:47:47.093750,-3.38
2022-09-18 22:47:47.109375,-2.79
2022-09-18 22:47:47.125000,-2.22
2022-09-18 22:47:47.140625,-1.62
2022-09-18 22:47:47.156250,-0.94
2022-09-18 22:47:47.171875,-0.16
2022-09-18 22:47:47.187500,0.68
2022-09-18 22:47:47.203125,1.52
2022-09-18 22:47:47.218750,2.27
2022-09-18 22:47:47.234375,2.83
2022-09-18 22:47:47.250000,3.19
2022-09-18 22:47:47.265625,3.37
2022-09-18 22:47:47.281250,3.42
2022-09-18 22:47:47.296875,3.38
2022-09-18 22:47:47.312500,3.26
2022-09-18 22:47:47.328125,3.07
2022-09-18 22:47:47.343750,2.83
2022-09-18 22:47:47.359375,2.58
2022-09-18 22:47:47.375000,2.38
2022-09-18 22:47:47.390625,2.3
2022-09-18 22:47:47.406250,2.32
2022-09-18 22:47:47.421875,2.4
2022-09-18 22:47:47.437500,2.45
2022-09-18 22:47:47.453125,2.42
2022-09-18 22:47:47.468750,2.31
2022-09-18 22:47:47.484375,2.2
2022-09-18 22:47:47.500000,2.15
2022-09-18 22:47:47.515625,2.16
2022-09-18 22:47:47.531250,2.16
2022-09-18 22:47:47.546875,2.09
2022-09-18 22:47:47.562500,1.9
2022-09-18 22:47:47.578125,1.62
2022-09-18 22:47:47.593750,1.34
2022-09-18 22:47:47.609375,1.11
2022-09-18 22:47:47.625000,0.97
2022-09-18 22:47:47.640625,0.86
2022-09-18 22:47:47.656250,0.71
2022-09-18 22:47:47.671875,0.45
2022-09-18 22:47:47.687500,0.08
2022-09-18 22:47:47.703125,-0.35
2022-09-18 22:47:47.718750,-0.79
2022-09-18 22:47:47.734375,-1.17
2022-09-18 22:47:47.750000,-1.5
2022-09-18 22:47:47.765625,-1.77
2022-09-18 22:47:47.781250,-1.99
2022-09-18 22:47:47.796875,-2.14
2022-09-18 22:47:47.812500,-2.26
2022-09-18 22:47:47.828125,-2.37
2022-09-18 22:47:47.843750,-2.56
2022-09-18 22:47:47.859375,-2.94
2022-09-18 22:47:47.875000,-3.56
2022-09-18 22:47:47.890625,-4.37
2022-09-18 22:47:47.906250,-5.23
2022-09-18 22:47:47.921875,-5.93
2022-09-18 22:47:47.937500,-6.24
2022-09-18 22:47:47.953125,-6.06
2022-09-18 22:47:47.968750,-5.44
2022-09-18 22:47:47.984375,-4.54
2022-09-18 22:47:48.000000,-3.57
2022-09-18 22:47:48.015625,-2.69
2022-09-18 22:47:48.031250,-1.92
2022-09-18 22:47:48.046875,-1.23
2022-09-18 22:47:48.062500,-0.53
2022-09-18 22:47:48.078125,0.19
2022-09-18 22:47:48.093750,0.89
2022-09-18 22:47:48.109375,1.5
2022-09-18 22:47:48.125000,1.93
2022-09-18 22:47:48.140625,2.15
2022-09-18 22:47:48.156250,2.19
2022-09-18 22:47:48.171875,2.1
2022-09-18 22:47:48.187500,1.93
2022-09-18 22:47:48.203125,1.75
2022-09-18 22:47:48.218750,1.62
2022-09-18 22:47:48.234375,1.6
2022-09-18 22:47:48.250000,1.7
2022-09-18 22:47:48.265625,1.94
2022-09-18 22:47:48.281250,2.28
2022-09-18 22:47:48.296875,2.64
2022-09-18 22:47:48.312500,2.97
2022-09-18 22:47:48.328125,3.21
2022-09-18 22:47:48.343750,3.35
2022-09-18 22:47:48.359375,3.4
2022-09-18 22:47:48.375000,3.36
2022-09-18 22:47:48.390625,3.25
2022-09-18 22:47:48.406250,3.06
2022-09-18 22:47:48.421875,2.77
2022-09-18 22:47:48.437500,2.38
2022-09-18 22:47:48.453125,1.9
2022-09-18 22:47:48.468750,1.36
2022-09-18 22:47:48.484375,0.83
2022-09-18 22:47:48.500000,0.37
2022-09-18 22:47:48.515625,0.02
2022-09-18 22:47:48.531250,-0.24
2022-09-18 22:47:48.546875,-0.44
2022-09-18 22:47:48.562500,-0.61
2022-09-18 22:47:48.578125,-0.75
2022-09-18 22:47:48.593750,-0.86
2022-09-18 22:47:48.609375,-0.92
2022-09-18 22:47:48.625000,-0.93
2022-09-18 22:47:48.640625,-0.94
2022-09-18 22:47:48.656250,-1.01
2022-09-18 22:47:48.671875,-1.17
2022-09-18 22:47:48.687500,-1.47
2022-09-18 22:47:48.703125,-1.88
2022-09-18 22:47:48.718750,-2.39
2022-09-18 22:47:48.734375,-2.93
2022-09-18 22:47:48.750000,-3.46
2022-09-18 22:47:48.765625,-3.97
2022-09-18 22:47:48.781250,-4.42
2022-09-18 22:47:48.796875,-4.8
2022-09-18 22:47:48.812500,-5.12
2022-09-18 22:47:48.828125,-5.35
2022-09-18 22:47:48.843750,-5.49
2022-09-18 22:47:48.859375,-5.55
2022-09-18 22:47:48.875000,-5.51
2022-09-18 22:47:48.890625,-5.37
2022-09-18 22:47:48.906250,-5.08
2022-09-18 22:47:48.921875,-4.59
2022-09-18 22:47:48.937500,-3.85
2022-09-18 22:47:48.953125,-2.84
2022-09-18 22:47:48.968750,-1.66
2022-09-18 22:47:48.984375,-0.45
2022-09-18 22:47:49.000000,0.58
2022-09-18 22:47:49.015625,1.3
2022-09-18 22:47:49.031250,1.73
2022-09-18 22:47:49.046875,1.96
2022-09-18 22:47:49.062500,2.19
2022-09-18 22:47:49.078125,2.52
2022-09-18 22:47:49.093750,2.96
2022-09-18 22:47:49.109375,3.39
2022-09-18 22:47:49.125000,3.66
2022-09-18 22:47:49.140625,3.69
2022-09-18 22:47:49.156250,3.5
2022-09-18 22:47:49.171875,3.19
2022-09-18 22:47:49.187500,2.85
2022-09-18 22:47:49.203125,2.53
2022-09-18 22:47:49.218750,2.2
2022-09-18 22:47:49.234375,1.86
2022-09-18 22:47:49.250000,1.51
2022-09-18 22:47:49.265625,1.22
2022-09-18 22:47:49.281250,1.06
2022-09-18 22:47:49.296875,1.06
2022-09-18 22:47:49.312500,1.18
2022-09-18 22:47:49.328125,1.27
2022-09-18 22:47:49.343750,1.21
2022-09-18 22:47:49.359375,0.93
2022-09-18 22:47:49.375000,0.46
2022-09-18 22:47:49.390625,-0.08
2022-09-18 22:47:49.406250,-0.53
2022-09-18 22:47:49.421875,-0.77
2022-09-18 22:47:49.437500,-0.79
2022-09-18 22:47:49.453125,-0.66
2022-09-18 22:47:49.468750,-0.5
2022-09-18 22:47:49.484375,-0.41
2022-09-18 22:47:49.500000,-0.42
2022-09-18 22:47:49.515625,-0.5
2022-09-18 22:47:49.531250,-0.58
2022-09-18 22:47:49.546875,-0.63
2022-09-18 22:47:49.562500,-0.68
2022-09-18 22:47:49.578125,-0.82
2022-09-18 22:47:49.593750,-1.12
2022-09-18 22:47:49.609375,-1.63
2022-09-18 22:47:49.625000,-2.31
2022-09-18 22:47:49.640625,-3.05
2022-09-18 22:47:49.656250,-3.72
2022-09-18 22:47:49.671875,-4.18
2022-09-18 22:47:49.687500,-4.4
2022-09-18 22:47:49.703125,-4.38
2022-09-18 22:47:49.718750,-4.19
2022-09-18 22:47:49.734375,-3.87
2022-09-18 22:47:49.750000,-3.43
2022-09-18 22:47:49.765625,-2.85
2022-09-18 22:47:49.781250,-2.05
2022-09-18 22:47:49.796875,-0.96
2022-09-18 22:47:49.812500,0.42
2022-09-18 22:47:49.828125,1.96
2022-09-18 22:47:49.843750,3.45
2022-09-18 22:47:49.859375,4.63
2022-09-18 22:47:49.875000,5.31
2022-09-18 22:47:49.890625,5.46
2022-09-18 22:47:49.906250,5.19
2022-09-18 22:47:49.921875,4.71
2022-09-18 22:47:49.937500,4.21
2022-09-18 22:47:49.953125,3.77
2022-09-18 22:47:49.968750,3.4
2022-09-18 22:47:49.984375,3.03
2022-09-18 22:47:50.000000,2.61
2022-09-18 22:47:50.015625,2.14
2022-09-18 22:47:50.031250,1.71
2022-09-18 22:47:50.046875,1.41
2022-09-18 22:47:50.062500,1.35
2022-09-18 22:47:50.078125,1.54
2022-09-18 22:47:50.093750,1.91
2022-09-18 22:47:50.109375,2.35
2022-09-18 22:47:50.125000,2.71
2022-09-18 22:47:50.140625,2.9
2022-09-18 22:47:50.156250,2.91
2022-09-18 22:47:50.171875,2.81
2022-09-18 22:47:50.187500,2.68
2022-09-18 22:47:50.203125,2.6
2022-09-18 22:47:50.218750,2.53
2022-09-18 22:47:50.234375,2.44
2022-09-18 22:47:50.250000,2.26
2022-09-18 22:47:50.265625,1.99
2022-09-18 22:47:50.281250,1.69
2022-09-18 22:47:50.296875,1.44
2022-09-18 22:47:50.312500,1.23
2022-09-18 22:47:50.328125,0.98
2022-09-18 22:47:50.343750,0.58
2022-09-18 22:47:50.359375,-0.05
2022-09-18 22:47:50.375000,-0.84
2022-09-18 22:47:50.390625,-1.66
2022-09-18 22:47:50.406250,-2.31
2022-09-18 22:47:50.421875,-2.69
2022-09-18 22:47:50.437500,-2.81
2022-09-18 22:47:50.453125,-2.77
2022-09-18 22:47:50.468750,-2.75
2022-09-18 22:47:50.484375,-2.93
2022-09-18 22:47:50.500000,-3.35
2022-09-18 22:47:50.515625,-4.01
2022-09-18 22:47:50.531250,-4.77
2022-09-18 22:47:50.546875,-5.48
2022-09-18 22:47:50.562500,-5.96
2022-09-18 22:47:50.578125,-6.12
2022-09-18 22:47:50.593750,-5.92
2022-09-18 22:47:50.609375,-5.39
2022-09-18 22:47:50.625000,-4.64
2022-09-18 22:47:50.640625,-3.78
2022-09-18 22:47:50.656250,-2.94
2022-09-18 22:47:50.671875,-2.19
2022-09-18 22:47:50.687500,-1.58
2022-09-18 22:47:50.703125,-1.1
2022-09-18 22:47:50.718750,-0.71
2022-09-18 22:47:50.734375,-0.32
2022-09-18 22:47:50.750000,0.11
2022-09-18 22:47:50.765625,0.61
2022-09-18 22:47:50.781250,1.15
2022-09-18 22:47:50.796875,1.65
2022-09-18 22:47:50.812500,2.04
2022-09-18 22:47:50.828125,2.29
2022-09-18 22:47:50.843750,2.4
2022-09-18 22:47:50.859375,2.43
2022-09-18 22:47:50.875000,2.44
2022-09-18 22:47:50.890625,2.44
2022-09-18 22:47:50.906250,2.45
2022-09-18 22:47:50.921875,2.48
2022-09-18 22:47:50.937500,2.52
2022-09-18 22:47:50.953125,2.6
2022-09-18 22:47:50.968750,2.73
2022-09-18 22:47:50.984375,2.88
2022-09-18 22:47:51.000000,3.04
2022-09-18 22:47:51.015625,3.15
2022-09-18 22:47:51.031250,3.16
2022-09-18 22:47:51.046875,3.02
2022-09-18 22:47:51.062500,2.69
2022-09-18 22:47:51.078125,2.17
2022-09-18 22:47:51.093750,1.53
2022-09-18 22:47:51.109375,0.87
2022-09-18 22:47:51.125000,0.34
2022-09-18 22:47:51.140625,0.02
2022-09-18 22:47:51.156250,-0.09
2022-09-18 22:47:51.171875,-0.09
2022-09-18 22:47:51.187500,-0.12
2022-09-18 22:47:51.203125,-0.3
2022-09-18 22:47:51.218750,-0.64
2022-09-18 22:47:51.234375,-1.06
2022-09-18 22:47:51.250000,-1.46
2022-09-18 22:47:51.265625,-1.8
2022-09-18 22:47:51.281250,-2.09
2022-09-18 22:47:51.296875,-2.44
2022-09-18 22:47:51.312500,-2.93
2022-09-18 22:47:51.328125,-3.57
2022-09-18 22:47:51.343750,-4.28
2022-09-18 22:47:51.359375,-4.94
2022-09-18 22:47:51.375000,-5.41
2022-09-18 22:47:51.390625,-5.66
2022-09-18 22:47:51.406250,-5.71
2022-09-18 22:47:51.421875,-5.69
2022-09-18 22:47:51.437500,-5.69
2022-09-18 22:47:51.453125,-5.75
2022-09-18 22:47:51.468750,-5.8
2022-09-18 22:47:51.484375,-5.68
2022-09-18 22:47:51.500000,-5.27
2022-09-18 22:47:51.515625,-4.51
2022-09-18 22:47:51.531250,-3.49
2022-09-18 22:47:51.546875,-2.35
2022-09-18 22:47:51.562500,-1.25
2022-09-18 22:47:51.578125,-0.35
2022-09-18 22:47:51.593750,0.34
2022-09-18 22:47:51.609375,0.82
2022-09-18 22:47:51.625000,1.17
2022-09-18 22:47:51.640625,1.46
2022-09-18 22:47:51.656250,1.74
2022-09-18 22:47:51.671875,2.04
2022-09-18 22:47:51.687500,2.37
2022-09-18 22:47:51.703125,2.67
2022-09-18 22:47:51.718750,2.86
2022-09-18 22:47:51.734375,2.84
2022-09-18 22:47:51.750000,2.55
2022-09-18 22:47:51.765625,1.97
2022-09-18 22:47:51.781250,1.2
2022-09-18 22:47:51.796875,0.33
2022-09-18 22:47:51.812500,-0.53
2022-09-18 22:47:51.828125,-1.39
2022-09-18 22:47:51.843750,-2.26
2022-09-18 22:47:51.859375,-3.19
2022-09-18 22:47:51.875000,-4.2
2022-09-18 22:47:51.890625,-5.28
2022-09-18 22:47:51.906250,-6.42
2022-09-18 22:47:51.921875,-7.56
2022-09-18 22:47:51.937500,-8.66
2022-09-18 22:47:51.953125,-9.67
2022-09-18 22:47:51.968750,-10.65
2022-09-18 22:47:51.984375,-11.68
2022-09-18 22:47:52.000000,-12.92
2022-09-18 22:47:52.015625,-14.51
2022-09-18 22:47:52.031250,-16.46
2022-09-18 22:47:52.046875,-18.68
2022-09-18 22:47:52.062500,-20.98
2022-09-18 22:47:52.078125,-23.17
2022-09-18 22:47:52.093750,-25.19
2022-09-18 22:47:52.109375,-27.16
2022-09-18 22:47:52.125000,-29.27
2022-09-18 22:47:52.140625,-31.72
2022-09-18 22:47:52.156250,-34.58
2022-09-18 22:47:52.171875,-37.83
2022-09-18 22:47:52.187500,-41.4
2022-09-18 22:47:52.203125,-45.15
2022-09-18 22:47:52.218750,-48.78
2022-09-18 22:47:52.234375,-51.88
2022-09-18 22:47:52.250000,-53.85
2022-09-18 22:47:52.265625,-54.15
2022-09-18 22:47:52.281250,-52.56
2022-09-18 22:47:52.296875,-49.32
2022-09-18 22:47:52.312500,-45.12
2022-09-18 22:47:52.328125,-40.8
2022-09-18 22:47:52.343750,-36.97
2022-09-18 22:47:52.359375,-33.71
2022-09-18 22:47:52.375000,-30.52
2022-09-18 22:47:52.390625,-26.64
2022-09-18 22:47:52.406250,-21.41
2022-09-18 22:47:52.421875,-14.59
2022-09-18 22:47:52.437500,-6.53
2022-09-18 22:47:52.453125,2.08
2022-09-18 22:47:52.468750,10.48
2022-09-18 22:47:52.484375,18.12
2022-09-18 22:47:52.500000,24.84
2022-09-18 22:47:52.515625,30.75
2022-09-18 22:47:52.531250,36.1
2022-09-18 22:47:52.546875,41.04
2022-09-18 22:47:52.562500,45.52
2022-09-18 22:47:52.578125,49.37
2022-09-18 22:47:52.593750,52.41
2022-09-18 22:47:52.609375,54.61
2022-09-18 22:47:52.625000,56.09
2022-09-18 22:47:52.640625,57.15
2022-09-18 22:47:52.656250,58.07
2022-09-18 22:47:52.671875,59.09
2022-09-18 22:47:52.687500,60.31
2022-09-18 22:47:52.703125,61.7
2022-09-18 22:47:52.718750,63.11
2022-09-18 22:47:52.734375,64.28
2022-09-18 22:47:52.750000,64.9
2022-09-18 22:47:52.765625,64.6
2022-09-18 22:47:52.781250,63.05
2022-09-18 22:47:52.796875,60.01
2022-09-18 22:47:52.812500,55.42
2022-09-18 22:47:52.828125,49.45
2022-09-18 22:47:52.843750,42.5
2022-09-18 22:47:52.859375,35.09
2022-09-18 22:47:52.875000,27.8
2022-09-18 22:47:52.890625,21.16
2022-09-18 22:47:52.906250,15.54
2022-09-18 22:47:52.921875,11.11
2022-09-18 22:47:52.937500,7.84
2022-09-18 22:47:52.953125,5.52
2022-09-18 22:47:52.968750,3.8
2022-09-18 22:47:52.984375,2.23
2022-09-18 22:47:53.000000,0.31
2022-09-18 22:47:53.015625,-2.43
2022-09-18 22:47:53.031250,-6.23
2022-09-18 22:47:53.046875,-11.01
2022-09-18 22:47:53.062500,-16.33
2022-09-18 22:47:53.078125,-21.44
2022-09-18 22:47:53.093750,-25.55
2022-09-18 22:47:53.109375,-28.06
2022-09-18 22:47:53.125000,-28.75
2022-09-18 22:47:53.140625,-27.8
2022-09-18 22:47:53.156250,-25.67
2022-09-18 22:47:53.171875,-22.89
2022-09-18 22:47:53.187500,-19.89
2022-09-18 22:47:53.203125,-16.92
2022-09-18 22:47:53.218750,-14.11
2022-09-18 22:47:53.234375,-11.52
2022-09-18 22:47:53.250000,-9.18
2022-09-18 22:47:53.265625,-7.18
2022-09-18 22:47:53.281250,-5.58
2022-09-18 22:47:53.296875,-4.43
2022-09-18 22:47:53.312500,-3.75
2022-09-18 22:47:53.328125,-3.45
2022-09-18 22:47:53.343750,-3.33
2022-09-18 22:47:53.359375,-3.17
2022-09-18 22:47:53.375000,-2.73
2022-09-18 22:47:53.390625,-1.86
2022-09-18 22:47:53.406250,-0.61
2022-09-18 22:47:53.421875,0.87
2022-09-18 22:47:53.437500,2.33
2022-09-18 22:47:53.453125,3.58
2022-09-18 22:47:53.468750,4.54
2022-09-18 22:47:53.484375,5.24
2022-09-18 22:47:53.500000,5.75
2022-09-18 22:47:53.515625,6.1
2022-09-18 22:47:53.531250,6.23
2022-09-18 22:47:53.546875,6.04
2022-09-18 22:47:53.562500,5.5
2022-09-18 22:47:53.578125,4.68
2022-09-18 22:47:53.593750,3.77
2022-09-18 22:47:53.609375,2.97
2022-09-18 22:47:53.625000,2.41
2022-09-18 22:47:53.640625,2.0
2022-09-18 22:47:53.656250,1.46
2022-09-18 22:47:53.671875,0.45
2022-09-18 22:47:53.687500,-1.32
2022-09-18 22:47:53.703125,-3.88
2022-09-18 22:47:53.718750,-7.03
2022-09-18 22:47:53.734375,-10.35
2022-09-18 22:47:53.750000,-13.45
2022-09-18 22:47:53.765625,-16.04
2022-09-18 22:47:53.781250,-18.01
2022-09-18 22:47:53.796875,-19.35
2022-09-18 22:47:53.812500,-20.02
2022-09-18 22:47:53.828125,-19.92
2022-09-18 22:47:53.843750,-18.89
2022-09-18 22:47:53.859375,-16.87
2022-09-18 22:47:53.875000,-13.99
2022-09-18 22:47:53.890625,-10.63
2022-09-18 22:47:53.906250,-7.31
2022-09-18 22:47:53.921875,-4.49
2022-09-18 22:47:53.937500,-2.44
2022-09-18 22:47:53.953125,-1.14
2022-09-18 22:47:53.968750,-0.42
2022-09-18 22:47:53.984375,-0.06
2022-09-18 22:47:54.000000,0.08
2022-09-18 22:47:54.015625,0.03
2022-09-18 22:47:54.031250,-0.25
2022-09-18 22:47:54.046875,-0.77
2022-09-18 22:47:54.062500,-1.51
2022-09-18 22:47:54.078125,-2.41
2022-09-18 22:47:54.093750,-3.35
2022-09-18 22:47:54.109375,-4.23
2022-09-18 22:47:54.125000,-4.94
2022-09-18 22:47:54.140625,-5.42
2022-09-18 22:47:54.156250,-5.62
2022-09-18 22:47:54.171875,-5.58
2022-09-18 22:47:54.187500,-5.4
2022-09-18 22:47:54.203125,-5.25
2022-09-18 22:47:54.218750,-5.29
2022-09-18 22:47:54.234375,-5.69
2022-09-18 22:47:54.250000,-6.5
2022-09-18 22:47:54.265625,-7.71
2022-09-18 22:47:54.281250,-9.21
2022-09-18 22:47:54.296875,-10.89
2022-09-18 22:47:54.312500,-12.62
2022-09-18 22:47:54.328125,-14.33
2022-09-18 22:47:54.343750,-16.03
2022-09-18 22:47:54.359375,-17.82
2022-09-18 22:47:54.375000,-19.89
2022-09-18 22:47:54.390625,-22.45
2022-09-18 22:47:54.406250,-25.62
2022-09-18 22:47:54.421875,-29.39
2022-09-18 22:47:54.437500,-33.5
2022-09-18 22:47:54.453125,-37.45
2022-09-18 22:47:54.468750,-40.54
2022-09-18 22:47:54.484375,-42.06
2022-09-18 22:47:54.500000,-41.44
2022-09-18 22:47:54.515625,-38.48
2022-09-18 22:47:54.531250,-33.39
2022-09-18 22:47:54.546875,-26.75
2022-09-18 22:47:54.562500,-19.24
2022-09-18 22:47:54.578125,-11.48
2022-09-18 22:47:54.593750,-3.85
2022-09-18 22:47:54.609375,3.52
2022-09-18 22:47:54.625000,10.56
2022-09-18 22:47:54.640625,17.11
2022-09-18 22:47:54.656250,22.82
2022-09-18 22:47:54.671875,27.15
2022-09-18 22:47:54.687500,29.59
2022-09-18 22:47:54.703125,29.83
2022-09-18 22:47:54.718750,27.86
2022-09-18 22:47:54.734375,24.0
2022-09-18 22:47:54.750000,18.7
2022-09-18 22:47:54.765625,12.52
2022-09-18 22:47:54.781250,5.96
2022-09-18 22:47:54.796875,-0.48
2022-09-18 22:47:54.812500,-6.29
2022-09-18 22:47:54.828125,-10.97
2022-09-18 22:47:54.843750,-14.12
2022-09-18 22:47:54.859375,-15.54
2022-09-18 22:47:54.875000,-15.4
2022-09-18 22:47:54.890625,-14.17
2022-09-18 22:47:54.906250,-12.5
2022-09-18 22:47:54.921875,-11.02
2022-09-18 22:47:54.937500,-10.17
2022-09-18 22:47:54.953125,-10.1
2022-09-18 22:47:54.968750,-10.73
2022-09-18 22:47:54.984375,-11.81
2022-09-18 22:47:55.000000,-13.06
2022-09-18 22:47:55.015625,-14.19
2022-09-18 22:47:55.031250,-15.02
2022-09-18 22:47:55.046875,-15.55
2022-09-18 22:47:55.062500,-15.97
2022-09-18 22:47:55.078125,-16.67
2022-09-18 22:47:55.093750,-18.02
2022-09-18 22:47:55.109375,-20.18
2022-09-18 22:47:55.125000,-22.9
2022-09-18 22:47:55.140625,-25.37
2022-09-18 22:47:55.156250,-26.47
2022-09-18 22:47:55.171875,-25.01
2022-09-18 22:47:55.187500,-20.17
2022-09-18 22:47:55.203125,-11.78
2022-09-18 22:47:55.218750,-0.41
2022-09-18 22:47:55.234375,12.74
2022-09-18 22:47:55.250000,26.18
2022-09-18 22:47:55.265625,38.53
2022-09-18 22:47:55.281250,48.85
2022-09-18 22:47:55.296875,56.76
2022-09-18 22:47:55.312500,62.37
2022-09-18 22:47:55.328125,66.02
2022-09-18 22:47:55.343750,68.04
2022-09-18 22:47:55.359375,68.62
2022-09-18 22:47:55.375000,67.77
2022-09-18 22:47:55.390625,65.53
2022-09-18 22:47:55.406250,62.03
2022-09-18 22:47:55.421875,57.61
2022-09-18 22:47:55.437500,52.72
2022-09-18 22:47:55.453125,47.83
2022-09-18 22:47:55.468750,43.22
2022-09-18 22:47:55.484375,39.0
2022-09-18 22:47:55.500000,35.17
2022-09-18 22:47:55.515625,31.65
2022-09-18 22:47:55.531250,28.41
2022-09-18 22:47:55.546875,25.44
2022-09-18 22:47:55.562500,22.71
2022-09-18 22:47:55.578125,20.2
2022-09-18 22:47:55.593750,17.85
2022-09-18 22:47:55.609375,15.66
2022-09-18 22:47:55.625000,13.65
2022-09-18 22:47:55.640625,11.9
2022-09-18 22:47:55.656250,10.46
2022-09-18 22:47:55.671875,9.3
2022-09-18 22:47:55.687500,8.31
2022-09-18 22:47:55.703125,7.35
2022-09-18 22:47:55.718750,6.24
2022-09-18 22:47:55.734375,4.92
2022-09-18 22:47:55.750000,3.31
2022-09-18 22:47:55.765625,1.42
2022-09-18 22:47:55.781250,-0.76
2022-09-18 22:47:55.796875,-3.22
2022-09-18 22:47:55.812500,-5.99
2022-09-18 22:47:55.828125,-9.06
2022-09-18 22:47:55.843750,-12.41
2022-09-18 22:47:55.859375,-15.94
2022-09-18 22:47:55.875000,-19.45
2022-09-18 22:47:55.890625,-22.55
2022-09-18 22:47:55.906250,-24.7
2022-09-18 22:47:55.921875,-25.2
2022-09-18 22:47:55.937500,-23.35
2022-09-18 22:47:55.953125,-18.61
2022-09-18 22:47:55.968750,-10.83
2022-09-18 22:47:55.984375,-0.33
2022-09-18 22:47:56.000000,12.05
2022-09-18 22:47:56.015625,25.14
2022-09-18 22:47:56.031250,37.68
2022-09-18 22:47:56.046875,48.6
2022-09-18 22:47:56.062500,57.21
2022-09-18 22:47:56.078125,63.27
2022-09-18 22:47:56.093750,66.98
2022-09-18 22:47:56.109375,68.75
2022-09-18 22:47:56.125000,69.07
2022-09-18 22:47:56.140625,68.41
2022-09-18 22:47:56.156250,67.15
2022-09-18 22:47:56.171875,65.59
2022-09-18 22:47:56.187500,63.99
2022-09-18 22:47:56.203125,62.47
2022-09-18 22:47:56.218750,61.01
2022-09-18 22:47:56.234375,59.48
2022-09-18 22:47:56.250000,57.67
2022-09-18 22:47:56.265625,55.51
2022-09-18 22:47:56.281250,53.1
2022-09-18 22:47:56.296875,50.69
2022-09-18 22:47:56.312500,48.61
2022-09-18 22:47:56.328125,47.07
2022-09-18 22:47:56.343750,46.13
2022-09-18 22:47:56.359375,45.65
2022-09-18 22:47:56.375000,45.42
2022-09-18 22:47:56.390625,45.21
2022-09-18 22:47:56.406250,44.76
2022-09-18 22:47:56.421875,43.85
2022-09-18 22:47:56.437500,42.24
2022-09-18 22:47:56.453125,39.87
2022-09-18 22:47:56.468750,36.76
2022-09-18 22:47:56.484375,33.17
2022-09-18 22:47:56.500000,29.36
2022-09-18 22:47:56.515625,25.59
2022-09-18 22:47:56.531250,22.01
2022-09-18 22:47:56.546875,18.59
2022-09-18 22:47:56.562500,15.26
2022-09-18 22:47:56.578125,11.89
2022-09-18 22:47:56.593750,8.35
2022-09-18 22:47:56.609375,4.5
2022-09-18 22:47:56.625000,0.17
2022-09-18 22:47:56.640625,-4.75
2022-09-18 22:47:56.656250,-10.23
2022-09-18 22:47:56.671875,-16.09
2022-09-18 22:47:56.687500,-22.07
2022-09-18 22:47:56.703125,-27.94
2022-09-18 22:47:56.718750,-33.57
2022-09-18 22:47:56.734375,-38.95
2022-09-18 22:47:56.750000,-44.11
2022-09-18 22:47:56.765625,-48.98
2022-09-18 22:47:56.781250,-53.34
2022-09-18 22:47:56.796875,-56.9
2022-09-18 22:47:56.812500,-59.42
2022-09-18 22:47:56.828125,-60.81
2022-09-18 22:47:56.843750,-61.11
2022-09-18 22:47:56.859375,-60.44
2022-09-18 22:47:56.875000,-58.88
2022-09-18 22:47:56.890625,-56.49
2022-09-18 22:47:56.906250,-53.44
2022-09-18 22:47:56.921875,-50.09
2022-09-18 22:47:56.937500,-47.02
2022-09-18 22:47:56.953125,-44.79
2022-09-18 22:47:56.968750,-43.67
2022-09-18 22:47:56.984375,-43.48
2022-09-18 22:47:57.000000,-43.63
2022-09-18 22:47:57.015625,-43.4
2022-09-18 22:47:57.031250,-42.3
2022-09-18 22:47:57.046875,-40.26
2022-09-18 22:47:57.062500,-37.48
2022-09-18 22:47:57.078125,-34.3
2022-09-18 22:47:57.093750,-30.99
2022-09-18 22:47:57.109375,-27.7
2022-09-18 22:47:57.125000,-24.57
2022-09-18 22:47:57.140625,-21.83
2022-09-18 22:47:57.156250,-19.8
2022-09-18 22:47:57.171875,-18.75
2022-09-18 22:47:57.187500,-18.79
2022-09-18 22:47:57.203125,-19.77
2022-09-18 22:47:57.218750,-21.39
2022-09-18 22:47:57.234375,-23.31
2022-09-18 22:47:57.250000,-25.25
2022-09-18 22:47:57.265625,-27.02
2022-09-18 22:47:57.281250,-28.46
2022-09-18 22:47:57.296875,-29.44
2022-09-18 22:47:57.312500,-29.96
2022-09-18 22:47:57.328125,-30.23
2022-09-18 22:47:57.343750,-30.66
2022-09-18 22:47:57.359375,-31.73
2022-09-18 22:47:57.375000,-33.7
2022-09-18 22:47:57.390625,-36.25
2022-09-18 22:47:57.406250,-38.48
2022-09-18 22:47:57.421875,-39.09
2022-09-18 22:47:57.437500,-37.02
2022-09-18 22:47:57.453125,-31.9
2022-09-18 22:47:57.468750,-24.48
2022-09-18 22:47:57.484375,-16.56
2022-09-18 22:47:57.500000,-10.3
2022-09-18 22:47:57.515625,-7.23
2022-09-18 22:47:57.531250,-7.41
2022-09-18 22:47:57.546875,-9.38
2022-09-18 22:47:57.562500,-10.84
2022-09-18 22:47:57.578125,-9.97
2022-09-18 22:47:57.593750,-6.46
2022-09-18 22:47:57.609375,-1.89
2022-09-18 22:47:57.625000,1.02
2022-09-18 22:47:57.640625,-0.26
2022-09-18 22:47:57.656250,-6.9
2022-09-18 22:47:57.671875,-18.2
2022-09-18 22:47:57.687500,-32.01
2022-09-18 22:47:57.703125,-45.66
2022-09-18 22:47:57.718750,-56.95
2022-09-18 22:47:57.734375,-64.66
2022-09-18 22:47:57.750000,-68.9
2022-09-18 22:47:57.765625,-71.27
2022-09-18 22:47:57.781250,-74.82
2022-09-18 22:47:57.796875,-83.65
2022-09-18 22:47:57.812500,-101.45
2022-09-18 22:47:57.828125,-129.58
2022-09-18 22:47:57.843750,-165.31
2022-09-18 22:47:57.859375,-201.56
2022-09-18 22:47:57.875000,-228.68
2022-09-18 22:47:57.890625,-237.57
2022-09-18 22:47:57.906250,-223.03
2022-09-18 22:47:57.921875,-185.45
2022-09-18 22:47:57.937500,-130.55
2022-09-18 22:47:57.953125,-67.05
2022-09-18 22:47:57.968750,-3.91
2022-09-18 22:47:57.984375,51.8
2022-09-18 22:47:58.000000,95.81
2022-09-18 22:47:58.015625,126.39
2022-09-18 22:47:58.031250,143.79
2022-09-18 22:47:58.046875,149.68
2022-09-18 22:47:58.062500,146.83
2022-09-18 22:47:58.078125,138.64
2022-09-18 22:47:58.093750,128.6
2022-09-18 22:47:58.109375,119.53
2022-09-18 22:47:58.125000,113.01
2022-09-18 22:47:58.140625,109.26
2022-09-18 22:47:58.156250,107.39
2022-09-18 22:47:58.171875,105.87
2022-09-18 22:47:58.187500,103.27
2022-09-18 22:47:58.203125,98.65
2022-09-18 22:47:58.218750,91.91
2022-09-18 22:47:58.234375,83.7
2022-09-18 22:47:58.250000,75.19
2022-09-18 22:47:58.265625,67.53
2022-09-18 22:47:58.281250,61.49
2022-09-18 22:47:58.296875,57.1
2022-09-18 22:47:58.312500,53.79
2022-09-18 22:47:58.328125,50.66
2022-09-18 22:47:58.343750,47.02
2022-09-18 22:47:58.359375,42.72
2022-09-18 22:47:58.375000,38.24
2022-09-18 22:47:58.390625,34.3
2022-09-18 22:47:58.406250,31.43
2022-09-18 22:47:58.421875,29.53
2022-09-18 22:47:58.437500,27.76
2022-09-18 22:47:58.453125,24.92
2022-09-18 22:47:58.468750,19.93
2022-09-18 22:47:58.484375,12.33
2022-09-18 22:47:58.500000,2.54
2022-09-18 22:47:58.515625,-8.27
2022-09-18 22:47:58.531250,-18.58
2022-09-18 22:47:58.546875,-26.96
2022-09-18 22:47:58.562500,-32.49
2022-09-18 22:47:58.578125,-35.02
2022-09-18 22:47:58.593750,-35.07
2022-09-18 22:47:58.609375,-33.56
2022-09-18 22:47:58.625000,-31.44
2022-09-18 22:47:58.640625,-29.32
2022-09-18 22:47:58.656250,-27.27
2022-09-18 22:47:58.671875,-24.95
2022-09-18 22:47:58.687500,-21.85
2022-09-18 22:47:58.703125,-17.67
2022-09-18 22:47:58.718750,-12.6
2022-09-18 22:47:58.734375,-7.19
2022-09-18 22:47:58.750000,-2.2
2022-09-18 22:47:58.765625,1.81
2022-09-18 22:47:58.781250,4.69
2022-09-18 22:47:58.796875,6.67
2022-09-18 22:47:58.812500,8.17
2022-09-18 22:47:58.828125,9.54
2022-09-18 22:47:58.843750,10.86
2022-09-18 22:47:58.859375,11.99
2022-09-18 22:47:58.875000,12.71
2022-09-18 22:47:58.890625,12.92
2022-09-18 22:47:58.906250,12.75
2022-09-18 22:47:58.921875,12.48
2022-09-18 22:47:58.937500,12.33
2022-09-18 22:47:58.953125,12.3
2022-09-18 22:47:58.968750,12.08
2022-09-18 22:47:58.984375,11.22
2022-09-18 22:47:59.000000,9.32
2022-09-18 22:47:59.015625,6.26
2022-09-18 22:47:59.031250,2.29
2022-09-18 22:47:59.046875,-1.97
2022-09-18 22:47:59.062500,-5.74
2022-09-18 22:47:59.078125,-8.33
2022-09-18 22:47:59.093750,-9.36
2022-09-18 22:47:59.109375,-8.84
2022-09-18 22:47:59.125000,-7.07
2022-09-18 22:47:59.140625,-4.49
2022-09-18 22:47:59.156250,-1.42
2022-09-18 22:47:59.171875,1.99
2022-09-18 22:47:59.187500,5.75
2022-09-18 22:47:59.203125,9.94
2022-09-18 22:47:59.218750,14.52
2022-09-18 22:47:59.234375,19.34
2022-09-18 22:47:59.250000,24.1
2022-09-18 22:47:59.265625,28.55
2022-09-18 22:47:59.281250,32.52
2022-09-18 22:47:59.296875,35.96
2022-09-18 22:47:59.312500,38.83
2022-09-18 22:47:59.328125,40.99
2022-09-18 22:47:59.343750,42.18
2022-09-18 22:47:59.359375,42.01
2022-09-18 22:47:59.375000,40.18
2022-09-18 22:47:59.390625,36.57
2022-09-18 22:47:59.406250,31.34
2022-09-18 22:47:59.421875,24.89
2022-09-18 22:47:59.437500,17.81
2022-09-18 22:47:59.453125,10.65
2022-09-18 22:47:59.468750,3.87
2022-09-18 22:47:59.484375,-2.24
2022-09-18 22:47:59.500000,-7.52
2022-09-18 22:47:59.515625,-11.89
2022-09-18 22:47:59.531250,-15.36
2022-09-18 22:47:59.546875,-17.93
2022-09-18 22:47:59.562500,-19.67
2022-09-18 22:47:59.578125,-20.62
2022-09-18 22:47:59.593750,-20.88
2022-09-18 22:47:59.609375,-20.46
2022-09-18 22:47:59.625000,-19.44
2022-09-18 22:47:59.640625,-17.92
2022-09-18 22:47:59.656250,-16.11
2022-09-18 22:47:59.671875,-14.28
2022-09-18 22:47:59.687500,-12.72
2022-09-18 22:47:59.703125,-11.68
2022-09-18 22:47:59.718750,-11.32
2022-09-18 22:47:59.734375,-11.68
2022-09-18 22:47:59.750000,-12.73
2022-09-18 22:47:59.765625,-14.38
2022-09-18 22:47:59.781250,-16.56
2022-09-18 22:47:59.796875,-19.21
2022-09-18 22:47:59.812500,-22.33
2022-09-18 22:47:59.828125,-25.96
2022-09-18 22:47:59.843750,-30.14
2022-09-18 22:47:59.859375,-34.78
2022-09-18 22:47:59.875000,-39.61
2022-09-18 22:47:59.890625,-44.09
2022-09-18 22:47:59.906250,-47.49
2022-09-18 22:47:59.921875,-49.11
2022-09-18 22:47:59.937500,-48.42
2022-09-18 22:47:59.953125,-45.29
2022-09-18 22:47:59.968750,-40.02
2022-09-18 22:47:59.984375,-33.28
2022-09-18 22:48:00.000000,-25.93
2022-09-18 22:48:00.015625,-18.73
2022-09-18 22:48:00.031250,-12.12
2022-09-18 22:48:00.046875,-6.0
2022-09-18 22:48:00.062500,0.12
2022-09-18 22:48:00.078125,6.86
2022-09-18 22:48:00.093750,14.66
2022-09-18 22:48:00.109375,23.49
2022-09-18 22:48:00.125000,32.88
2022-09-18 22:48:00.140625,42.15
2022-09-18 22:48:00.156250,50.79
2022-09-18 22:48:00.171875,58.63
2022-09-18 22:48:00.187500,65.78
2022-09-18 22:48:00.203125,72.38
2022-09-18 22:48:00.218750,78.28
2022-09-18 22:48:00.234375,82.95
2022-09-18 22:48:00.250000,85.62
2022-09-18 22:48:00.265625,85.53
2022-09-18 22:48:00.281250,82.2
2022-09-18 22:48:00.296875,75.6
2022-09-18 22:48:00.312500,66.05
2022-09-18 22:48:00.328125,54.17
2022-09-18 22:48:00.343750,40.79
2022-09-18 22:48:00.359375,26.84
2022-09-18 22:48:00.375000,13.22
2022-09-18 22:48:00.390625,0.6
2022-09-18 22:48:00.406250,-10.77
2022-09-18 22:48:00.421875,-21.01
2022-09-18 22:48:00.437500,-30.58
2022-09-18 22:48:00.453125,-39.85
2022-09-18 22:48:00.468750,-48.9
2022-09-18 22:48:00.484375,-57.3
2022-09-18 22:48:00.500000,-64.17
2022-09-18 22:48:00.515625,-68.53
2022-09-18 22:48:00.531250,-69.54
2022-09-18 22:48:00.546875,-66.84
2022-09-18 22:48:00.562500,-60.63
2022-09-18 22:48:00.578125,-51.71
2022-09-18 22:48:00.593750,-41.27
2022-09-18 22:48:00.609375,-30.72
2022-09-18 22:48:00.625000,-21.31
2022-09-18 22:48:00.640625,-13.83
2022-09-18 22:48:00.656250,-8.39
2022-09-18 22:48:00.671875,-4.44
2022-09-18 22:48:00.687500,-1.06
2022-09-18 22:48:00.703125,2.59
2022-09-18 22:48:00.718750,6.99
2022-09-18 22:48:00.734375,12.07
2022-09-18 22:48:00.750000,17.4
2022-09-18 22:48:00.765625,22.5
2022-09-18 22:48:00.781250,27.02
2022-09-18 22:48:00.796875,30.85
2022-09-18 22:48:00.812500,33.93
2022-09-18 22:48:00.828125,36.2
2022-09-18 22:48:00.843750,37.45
2022-09-18 22:48:00.859375,37.42
2022-09-18 22:48:00.875000,35.96
2022-09-18 22:48:00.890625,33.1
2022-09-18 22:48:00.906250,29.09
2022-09-18 22:48:00.921875,24.28
2022-09-18 22:48:00.937500,19.03
2022-09-18 22:48:00.953125,13.69
2022-09-18 22:48:00.968750,8.5
2022-09-18 22:48:00.984375,3.65
2022-09-18 22:48:01.000000,-0.68
2022-09-18 22:48:01.015625,-4.37
2022-09-18 22:48:01.031250,-7.25
2022-09-18 22:48:01.046875,-9.18
2022-09-18 22:48:01.062500,-10.07
2022-09-18 22:48:01.078125,-9.95
2022-09-18 22:48:01.093750,-9.05
2022-09-18 22:48:01.109375,-7.76
2022-09-18 22:48:01.125000,-6.57
2022-09-18 22:48:01.140625,-5.92
2022-09-18 22:48:01.156250,-6.08
2022-09-18 22:48:01.171875,-7.06
2022-09-18 22:48:01.187500,-8.58
2022-09-18 22:48:01.203125,-10.21
2022-09-18 22:48:01.218750,-11.54
2022-09-18 22:48:01.234375,-12.28
2022-09-18 22:48:01.250000,-12.38
2022-09-18 22:48:01.265625,-12.02
2022-09-18 22:48:01.281250,-11.59
2022-09-18 22:48:01.296875,-11.51
2022-09-18 22:48:01.312500,-12.16
2022-09-18 22:48:01.328125,-13.72
2022-09-18 22:48:01.343750,-16.08
2022-09-18 22:48:01.359375,-18.85
2022-09-18 22:48:01.375000,-21.42
2022-09-18 22:48:01.390625,-23.06
2022-09-18 22:48:01.406250,-23.16
2022-09-18 22:48:01.421875,-21.36
2022-09-18 22:48:01.437500,-17.67
2022-09-18 22:48:01.453125,-12.44
2022-09-18 22:48:01.468750,-6.3
2022-09-18 22:48:01.484375,0.07
2022-09-18 22:48:01.500000,6.04
2022-09-18 22:48:01.515625,11.18
2022-09-18 22:48:01.531250,15.28
2022-09-18 22:48:01.546875,18.25
2022-09-18 22:48:01.562500,20.12
2022-09-18 22:48:01.578125,20.97
2022-09-18 22:48:01.593750,20.9
2022-09-18 22:48:01.609375,20.07
2022-09-18 22:48:01.625000,18.68
2022-09-18 22:48:01.640625,16.99
2022-09-18 22:48:01.656250,15.22
2022-09-18 22:48:01.671875,13.55
2022-09-18 22:48:01.687500,12.07
2022-09-18 22:48:01.703125,10.77
2022-09-18 22:48:01.718750,9.61
2022-09-18 22:48:01.734375,8.52
2022-09-18 22:48:01.750000,7.53
2022-09-18 22:48:01.765625,6.66
2022-09-18 22:48:01.781250,5.97
2022-09-18 22:48:01.796875,5.44
2022-09-18 22:48:01.812500,4.99
2022-09-18 22:48:01.828125,4.5
2022-09-18 22:48:01.843750,3.8
2022-09-18 22:48:01.859375,2.75
2022-09-18 22:48:01.875000,1.27
2022-09-18 22:48:01.890625,-0.64
2022-09-18 22:48:01.906250,-2.84
2022-09-18 22:48:01.921875,-5.09
2022-09-18 22:48:01.937500,-7.14
2022-09-18 22:48:01.953125,-8.83
2022-09-18 22:48:01.968750,-10.22
2022-09-18 22:48:01.984375,-11.54
2022-09-18 22:48:02.000000,-13.16
2022-09-18 22:48:02.015625,-15.4
2022-09-18 22:48:02.031250,-18.33
2022-09-18 22:48:02.046875,-21.72
2022-09-18 22:48:02.062500,-25.02
2022-09-18 22:48:02.078125,-27.57
2022-09-18 22:48:02.093750,-28.72
2022-09-18 22:48:02.109375,-28.06
2022-09-18 22:48:02.125000,-25.5
2022-09-18 22:48:02.140625,-21.23
2022-09-18 22:48:02.156250,-15.7
2022-09-18 22:48:02.171875,-9.46
2022-09-18 22:48:02.187500,-3.1
2022-09-18 22:48:02.203125,2.88
2022-09-18 22:48:02.218750,8.09
2022-09-18 22:48:02.234375,12.32
2022-09-18 22:48:02.250000,15.53
2022-09-18 22:48:02.265625,17.78
2022-09-18 22:48:02.281250,19.2
2022-09-18 22:48:02.296875,19.92
2022-09-18 22:48:02.312500,20.02
2022-09-18 22:48:02.328125,19.53
2022-09-18 22:48:02.343750,18.5
2022-09-18 22:48:02.359375,17.03
2022-09-18 22:48:02.375000,15.33
2022-09-18 22:48:02.390625,13.67
2022-09-18 22:48:02.406250,12.3
2022-09-18 22:48:02.421875,11.34
2022-09-18 22:48:02.437500,10.78
2022-09-18 22:48:02.453125,10.5
2022-09-18 22:48:02.468750,10.33
2022-09-18 22:48:02.484375,10.12
2022-09-18 22:48:02.500000,9.81
2022-09-18 22:48:02.515625,9.35
2022-09-18 22:48:02.531250,8.75
2022-09-18 22:48:02.546875,8.02
2022-09-18 22:48:02.562500,7.18
2022-09-18 22:48:02.578125,6.25
2022-09-18 22:48:02.593750,5.22
2022-09-18 22:48:02.609375,4.03
2022-09-18 22:48:02.625000,2.59
2022-09-18 22:48:02.640625,0.86
2022-09-18 22:48:02.656250,-1.16
2022-09-18 22:48:02.671875,-3.32
2022-09-18 22:48:02.687500,-5.45
2022-09-18 22:48:02.703125,-7.41
2022-09-18 22:48:02.718750,-9.19
2022-09-18 22:48:02.734375,-10.9
2022-09-18 22:48:02.750000,-12.73
2022-09-18 22:48:02.765625,-14.83
2022-09-18 22:48:02.781250,-17.31
2022-09-18 22:48:02.796875,-20.16
2022-09-18 22:48:02.812500,-23.27
2022-09-18 22:48:02.828125,-26.44
2022-09-18 22:48:02.843750,-29.28
2022-09-18 22:48:02.859375,-31.26
2022-09-18 22:48:02.875000,-31.77
2022-09-18 22:48:02.890625,-30.34
2022-09-18 22:48:02.906250,-26.8
2022-09-18 22:48:02.921875,-21.37
2022-09-18 22:48:02.937500,-14.67
2022-09-18 22:48:02.953125,-7.49
2022-09-18 22:48:02.968750,-0.6
2022-09-18 22:48:02.984375,5.44
2022-09-18 22:48:03.000000,10.31
2022-09-18 22:48:03.015625,13.98
2022-09-18 22:48:03.031250,16.56
2022-09-18 22:48:03.046875,18.27
2022-09-18 22:48:03.062500,19.32
2022-09-18 22:48:03.078125,19.88
2022-09-18 22:48:03.093750,20.02
2022-09-18 22:48:03.109375,19.74
2022-09-18 22:48:03.125000,19.03
2022-09-18 22:48:03.140625,17.89
2022-09-18 22:48:03.156250,16.48
2022-09-18 22:48:03.171875,14.99
2022-09-18 22:48:03.187500,13.68
2022-09-18 22:48:03.203125,12.72
2022-09-18 22:48:03.218750,12.15
2022-09-18 22:48:03.234375,11.89
2022-09-18 22:48:03.250000,11.8
2022-09-18 22:48:03.265625,11.76
2022-09-18 22:48:03.281250,11.67
2022-09-18 22:48:03.296875,11.48
2022-09-18 22:48:03.312500,11.14
2022-09-18 22:48:03.328125,10.59
2022-09-18 22:48:03.343750,9.74
2022-09-18 22:48:03.359375,8.53
2022-09-18 22:48:03.375000,7.0
2022-09-18 22:48:03.390625,5.28
2022-09-18 22:48:03.406250,3.56
2022-09-18 22:48:03.421875,1.96
2022-09-18 22:48:03.437500,0.51
2022-09-18 22:48:03.453125,-0.89
2022-09-18 22:48:03.468750,-2.42
2022-09-18 22:48:03.484375,-4.2
2022-09-18 22:48:03.500000,-6.18
2022-09-18 22:48:03.515625,-8.22
2022-09-18 22:48:03.531250,-10.08
2022-09-18 22:48:03.546875,-11.61
2022-09-18 22:48:03.562500,-12.78
2022-09-18 22:48:03.578125,-13.77
2022-09-18 22:48:03.593750,-14.85
2022-09-18 22:48:03.609375,-16.33
2022-09-18 22:48:03.625000,-18.44
2022-09-18 22:48:03.640625,-21.23
2022-09-18 22:48:03.656250,-24.55
2022-09-18 22:48:03.671875,-28.0
2022-09-18 22:48:03.687500,-30.98
2022-09-18 22:48:03.703125,-32.77
2022-09-18 22:48:03.718750,-32.72
2022-09-18 22:48:03.734375,-30.46
2022-09-18 22:48:03.750000,-26.0
2022-09-18 22:48:03.765625,-19.86
2022-09-18 22:48:03.781250,-12.81
2022-09-18 22:48:03.796875,-5.71
2022-09-18 22:48:03.812500,0.78
2022-09-18 22:48:03.828125,6.27
2022-09-18 22:48:03.843750,10.72
2022-09-18 22:48:03.859375,14.23
2022-09-18 22:48:03.875000,16.91
2022-09-18 22:48:03.890625,18.84
2022-09-18 22:48:03.906250,20.0
2022-09-18 22:48:03.921875,20.38
2022-09-18 22:48:03.937500,20.06
2022-09-18 22:48:03.953125,19.19
2022-09-18 22:48:03.968750,18.03
2022-09-18 22:48:03.984375,16.84
2022-09-18 22:48:04.000000,15.78
2022-09-18 22:48:04.015625,14.92
2022-09-18 22:48:04.031250,14.24
2022-09-18 22:48:04.046875,13.66
2022-09-18 22:48:04.062500,13.14
2022-09-18 22:48:04.078125,12.69
2022-09-18 22:48:04.093750,12.36
2022-09-18 22:48:04.109375,12.2
2022-09-18 22:48:04.125000,12.17
2022-09-18 22:48:04.140625,12.19
2022-09-18 22:48:04.156250,12.08
2022-09-18 22:48:04.171875,11.69
2022-09-18 22:48:04.187500,10.91
2022-09-18 22:48:04.203125,9.72
2022-09-18 22:48:04.218750,8.2
2022-09-18 22:48:04.234375,6.51
2022-09-18 22:48:04.250000,4.83
2022-09-18 22:48:04.265625,3.31
2022-09-18 22:48:04.281250,2.03
2022-09-18 22:48:04.296875,0.94
2022-09-18 22:48:04.312500,-0.12
2022-09-18 22:48:04.328125,-1.33
2022-09-18 22:48:04.343750,-2.85
2022-09-18 22:48:04.359375,-4.71
2022-09-18 22:48:04.375000,-6.77
2022-09-18 22:48:04.390625,-8.81
2022-09-18 22:48:04.406250,-10.63
2022-09-18 22:48:04.421875,-12.14
2022-09-18 22:48:04.437500,-13.39
2022-09-18 22:48:04.453125,-14.57
2022-09-18 22:48:04.468750,-15.9
2022-09-18 22:48:04.484375,-17.59
2022-09-18 22:48:04.500000,-19.76
2022-09-18 22:48:04.515625,-22.44
2022-09-18 22:48:04.531250,-25.52
2022-09-18 22:48:04.546875,-28.73
2022-09-18 22:48:04.562500,-31.59
2022-09-18 22:48:04.578125,-33.42
2022-09-18 22:48:04.593750,-33.54
2022-09-18 22:48:04.609375,-31.46
2022-09-18 22:48:04.625000,-27.07
2022-09-18 22:48:04.640625,-20.77
2022-09-18 22:48:04.656250,-13.32
2022-09-18 22:48:04.671875,-5.69
2022-09-18 22:48:04.687500,1.27
2022-09-18 22:48:04.703125,7.01
2022-09-18 22:48:04.718750,11.34
2022-09-18 22:48:04.734375,14.38
2022-09-18 22:48:04.750000,16.39
2022-09-18 22:48:04.765625,17.61
2022-09-18 22:48:04.781250,18.2
2022-09-18 22:48:04.796875,18.22
2022-09-18 22:48:04.812500,17.69
2022-09-18 22:48:04.828125,16.72
2022-09-18 22:48:04.843750,15.5
2022-09-18 22:48:04.859375,14.24
2022-09-18 22:48:04.875000,13.13
2022-09-18 22:48:04.890625,12.26
2022-09-18 22:48:04.906250,11.58
2022-09-18 22:48:04.921875,11.0
2022-09-18 22:48:04.937500,10.44
2022-09-18 22:48:04.953125,9.92
2022-09-18 22:48:04.968750,9.57
2022-09-18 22:48:04.984375,9.49
2022-09-18 22:48:05.000000,9.71
2022-09-18 22:48:05.015625,10.05
2022-09-18 22:48:05.031250,10.19
2022-09-18 22:48:05.046875,9.83
2022-09-18 22:48:05.062500,8.81
2022-09-18 22:48:05.078125,7.22
2022-09-18 22:48:05.093750,5.36
2022-09-18 22:48:05.109375,3.59
2022-09-18 22:48:05.125000,2.2
2022-09-18 22:48:05.140625,1.23
2022-09-18 22:48:05.156250,0.54
2022-09-18 22:48:05.171875,-0.14
2022-09-18 22:48:05.187500,-1.03
2022-09-18 22:48:05.203125,-2.25
2022-09-18 22:48:05.218750,-3.77
2022-09-18 22:48:05.234375,-5.46
2022-09-18 22:48:05.250000,-7.14
2022-09-18 22:48:05.265625,-8.68
2022-09-18 22:48:05.281250,-9.98
2022-09-18 22:48:05.296875,-11.11
2022-09-18 22:48:05.312500,-12.21
2022-09-18 22:48:05.328125,-13.56
2022-09-18 22:48:05.343750,-15.44
2022-09-18 22:48:05.359375,-17.99
2022-09-18 22:48:05.375000,-21.03
2022-09-18 22:48:05.390625,-24.08
2022-09-18 22:48:05.406250,-26.37
2022-09-18 22:48:05.421875,-27.07
2022-09-18 22:48:05.437500,-25.58
2022-09-18 22:48:05.453125,-21.76
2022-09-18 22:48:05.468750,-15.94
2022-09-18 22:48:05.484375,-8.89
2022-09-18 22:48:05.500000,-1.57
2022-09-18 22:48:05.515625,5.14
2022-09-18 22:48:05.531250,10.63
2022-09-18 22:48:05.546875,14.68
2022-09-18 22:48:05.562500,17.42
2022-09-18 22:48:05.578125,19.16
2022-09-18 22:48:05.593750,20.29
2022-09-18 22:48:05.609375,21.03
2022-09-18 22:48:05.625000,21.47
2022-09-18 22:48:05.640625,21.53
2022-09-18 22:48:05.656250,21.11
2022-09-18 22:48:05.671875,20.2
2022-09-18 22:48:05.687500,18.86
2022-09-18 22:48:05.703125,17.24
2022-09-18 22:48:05.718750,15.49
2022-09-18 22:48:05.734375,13.7
2022-09-18 22:48:05.750000,11.89
2022-09-18 22:48:05.765625,10.02
2022-09-18 22:48:05.781250,8.13
2022-09-18 22:48:05.796875,6.29
2022-09-18 22:48:05.812500,4.64
2022-09-18 22:48:05.828125,3.28
2022-09-18 22:48:05.843750,2.2
2022-09-18 22:48:05.859375,1.3
2022-09-18 22:48:05.875000,0.39
2022-09-18 22:48:05.890625,-0.72
2022-09-18 22:48:05.906250,-2.14
2022-09-18 22:48:05.921875,-3.92
2022-09-18 22:48:05.937500,-5.99
2022-09-18 22:48:05.953125,-8.21
2022-09-18 22:48:05.968750,-10.43
2022-09-18 22:48:05.984375,-12.53
2022-09-18 22:48:06.000000,-14.42
2022-09-18 22:48:06.015625,-16.12
2022-09-18 22:48:06.031250,-17.7
2022-09-18 22:48:06.046875,-19.28
2022-09-18 22:48:06.062500,-21.01
2022-09-18 22:48:06.078125,-23.03
2022-09-18 22:48:06.093750,-25.42
2022-09-18 22:48:06.109375,-28.24
2022-09-18 22:48:06.125000,-31.43
2022-09-18 22:48:06.140625,-34.76
2022-09-18 22:48:06.156250,-37.81
2022-09-18 22:48:06.171875,-39.96
2022-09-18 22:48:06.187500,-40.56
2022-09-18 22:48:06.203125,-39.12
2022-09-18 22:48:06.218750,-35.5
2022-09-18 22:48:06.234375,-30.02
2022-09-18 22:48:06.250000,-23.33
2022-09-18 22:48:06.265625,-16.22
2022-09-18 22:48:06.281250,-9.32
2022-09-18 22:48:06.296875,-3.05
2022-09-18 22:48:06.312500,2.41
2022-09-18 22:48:06.328125,7.0
2022-09-18 22:48:06.343750,10.6
2022-09-18 22:48:06.359375,13.09
2022-09-18 22:48:06.375000,14.36
2022-09-18 22:48:06.390625,14.49
2022-09-18 22:48:06.406250,13.72
2022-09-18 22:48:06.421875,12.48
2022-09-18 22:48:06.437500,11.25
2022-09-18 22:48:06.453125,10.42
2022-09-18 22:48:06.468750,10.22
