1663647824.00
64.000000
-0.00
-0.00
-0.00
-0.00
-0.00
-0.00
-0.00
-0.00
-0.00
-0.00
0.00
0.01
0.01
-0.00
-0.03
-0.05
-0.05
0.00
0.13
0.36
0.66
1.01
1.37
1.72
2.06
2.40
2.79
3.24
3.80
4.42
5.06
5.66
6.20
6.68
7.15
7.68
8.31
9.14
10.09
11.04
11.88
12.56
13.14
13.76
14.65
15.96
17.91
20.32
22.91
25.38
27.58
29.57
31.67
34.31
37.81
42.54
48.16
54.14
59.89
65.02
69.57
74.02
79.07
85.26
93.17
102.31
111.89
120.99
129.03
135.97
142.44
149.75
156.64
165.39
176.65
190.51
205.73
219.33
226.91
223.79
206.61
174.58
130.19
77.35
20.40
-37.53
-95.06
-152.09
-208.84
-264.94
-319.36
-370.34
-416.76
-457.89
-493.35
-522.63
-544.70
-557.99
-560.62
-551.09
-528.67
-494.14
-449.58
-397.96
-342.52
-286.13
-230.81
-177.66
-127.10
-79.26
-34.56
6.27
42.27
72.54
96.52
114.05
125.31
130.82
131.75
130.10
128.79
131.01
139.15
153.68
172.66
192.43
208.89
219.05
221.92
218.33
210.09
198.93
186.02
171.99
157.37
142.87
129.33
117.35
107.06
98.02
89.50
80.75
71.46
61.85
52.56
44.50
38.18
33.70
30.68
28.42
26.13
23.29
19.77
15.86
12.05
8.81
6.32
4.46
2.91
1.31
-0.50
-2.44
-4.22
-5.59
-6.41
-6.66
-6.51
-6.19
-5.89
-5.74
-5.79
-5.99
-6.23
-6.49
-6.72
-6.93
-7.10
-7.14
-6.95
-6.45
-5.69
-4.84
-4.16
-3.84
-3.96
-4.42
-5.06
-5.67
-6.06
-6.07
-5.58
-4.56
-3.09
-1.39
0.23
1.45
2.10
2.13
1.67
0.94
0.17
-0.46
-0.85
-1.00
-0.97
-0.87
-0.81
-0.84
-0.94
-1.04
-1.06
-0.94
-0.71
-0.41
-0.12
0.12
0.28
0.33
0.30
0.20
0.08
0.02
0.08
0.28
0.63
1.11
1.70
2.38
3.14
4.00
4.95
5.98
7.03
7.98
8.70
8.99
8.71
7.83
6.34
4.39
2.22
0.03
-2.06
-3.99
-5.72
-7.17
-8.21
-8.80
-8.94
-8.80
-8.61
-8.51
-8.53
-8.55
-8.40
-7.99
-7.42
-6.85
-6.43
-6.21
-6.13
-6.04
-5.85
-5.53
-5.17
-4.87
-4.69
-4.63
-4.61
-4.54
-4.29
-3.78
-2.93
-1.75
-0.30
1.30
2.88
4.31
5.44
6.20
6.53
6.44
5.98
5.26
4.40
3.55
2.81
2.20
1.70
1.25
0.79
0.33
-0.08
-0.33
-0.38
-0.27
-0.10
-0.04
-0.19
-0.59
-1.21
-1.94
-2.66
-3.29
-3.82
-4.28
-4.72
-5.22
-5.83
-6.60
-7.54
-8.62
-9.71
-10.63
-11.16
-11.12
-10.39
-9.00
-7.08
-4.84
-2.50
-0.24
1.79
3.51
4.86
5.83
6.44
6.75
6.83
6.77
6.61
6.34
5.92
5.33
4.57
3.75
3.02
2.51
2.27
2.24
2.26
2.14
1.76
1.10
0.26
-0.65
-1.51
-2.31
-3.07
-3.88
-4.79
-5.82
-6.98
-8.21
-9.40
-10.42
-11.09
-11.22
-10.65
-9.33
-7.34
-4.90
-2.36
-0.05
1.77
3.00
3.74
4.14
4.36
4.49
4.53
4.43
4.14
3.66
3.03
2.30
1.51
0.66
-0.25
-1.18
-2.11
-3.02
-3.92
-4.84
-5.82
-6.91
-8.10
-9.37
-10.69
-12.02
-13.35
-14.69
-16.07
-17.51
-18.90
-20.05
-20.61
-20.21
-18.55
-15.54
-11.35
-6.34
-0.99
4.24
9.06
13.26
16.78
19.56
21.57
22.81
23.31
23.20
22.66
21.88
21.02
20.20
19.45
18.69
17.82
16.68
15.16
13.19
10.82
8.15
5.34
2.58
-0.01
-2.38
-4.51
-6.44
-8.15
-9.61
-10.74
-11.49
-11.84
-11.81
-11.44
-10.73
-9.65
-8.14
-6.22
-3.99
-1.69
0.43
2.15
3.34
3.96
3.96
3.25
1.60
-1.20
-5.27
-10.50
-16.52
-22.75
-28.56
-33.42
-37.00
-39.20
-40.02
-39.49
-37.57
-34.25
-29.59
-23.86
-17.52
-11.14
-5.25
-0.21
3.88
7.07
9.57
11.54
13.13
14.36
15.24
15.69
15.67
15.22
14.52
13.93
13.89
14.79
16.83
19.96
23.84
28.03
32.01
35.33
37.61
38.58
38.18
36.55
34.10
31.34
28.75
26.52
24.50
22.30
19.43
15.60
10.79
5.32
-0.26
-5.34
-9.44
-12.29
-13.95
-14.75
-15.15
-15.60
-16.36
-17.49
-18.85
-20.24
-21.48
-22.48
-23.21
-23.67
-23.90
-23.90
-23.71
-23.37
-22.85
-22.05
-20.79
-18.85
-16.18
-12.86
-9.18
-5.50
-2.10
0.86
3.42
5.70
7.77
9.63
11.18
12.42
13.38
14.23
15.15
16.19
17.27
18.21
18.83
19.07
18.99
18.69
18.27
17.71
16.98
16.01
14.84
13.52
12.13
10.72
9.24
7.61
5.78
3.73
1.51
-0.74
-2.85
-4.64
-5.89
-6.44
-6.20
-5.21
-3.60
-1.58
0.60
2.75
4.72
6.45
7.89
9.01
9.78
10.13
10.00
9.40
8.39
7.14
5.89
4.83
4.14
3.84
3.89
4.16
4.47
4.66
4.63
4.32
3.77
3.04
2.16
1.19
0.13
-0.99
-2.12
-3.24
-4.36
-5.58
-6.97
-8.53
-10.05
-11.12
-11.31
-10.30
-8.13
-5.16
-1.97
0.89
3.13
4.73
5.88
6.83
7.67
8.36
8.74
8.71
8.28
7.55
6.73
5.96
5.37
4.96
4.69
4.47
4.25
3.97
3.58
3.05
2.33
1.42
0.36
-0.78
-1.90
-2.88
-3.67
-4.28
-4.85
-5.58
-6.66
-8.17
-10.01
-11.87
-13.37
-14.13
-13.93
-12.76
-10.83
-8.44
-5.88
-3.31
-0.81
1.59
3.85
5.80
7.26
8.10
8.35
8.18
7.83
7.52
7.33
7.22
7.09
6.84
6.46
6.00
5.53
5.07
4.59
4.04
3.34
2.48
1.53
0.60
-0.23
-0.87
-1.37
-1.82
-2.36
-3.14
-4.23
-5.62
-7.26
-9.04
-10.80
-12.35
-13.46
-13.92
-13.58
-12.39
-10.51
-8.19
-5.70
-3.30
-1.10
0.88
2.69
4.35
5.81
6.99
7.80
8.24
8.36
8.28
8.13
8.01
7.91
7.80
7.58
7.17
6.57
5.81
5.01
4.30
3.76
3.39
3.09
2.76
2.27
1.59
0.74
-0.22
-1.22
-2.22
-3.22
-4.18
-5.14
-6.10
-7.11
-8.21
-9.46
-10.90
-12.49
-14.11
-15.57
-16.56
-16.81
-16.11
-14.40
-11.88
-8.88
-5.78
-2.90
-0.41
1.64
3.32
4.73
5.94
6.97
7.82
8.43
8.75
8.76
8.51
8.10
7.67
7.33
7.13
7.03
6.91
6.70
6.36
5.87
5.27
4.57
3.75
2.79
1.71
0.56
-0.60
-1.65
-2.58
-3.36
-4.08
-4.80
-5.63
-6.62
-7.81
-9.20
-10.75
-12.41
-14.08
-15.60
-16.73
-17.20
-16.78
-15.34
-12.95
-9.86
-6.49
-3.26
-0.46
1.80
3.61
5.10
6.39
7.47
8.26
8.70
8.80
8.71
8.57
8.49
8.46
8.40
8.20
7.84
7.35
6.83
6.36
5.93
5.49
4.95
4.25
3.38
2.35
1.23
0.06
-1.09
-2.17
-3.14
-4.00
-4.79
-5.59
-6.50
-7.61
-8.99
-10.63
-12.46
-14.30
-15.93
-17.05
-17.40
-16.81
-15.27
-12.98
-10.21
-7.26
-4.38
-1.72
0.70
2.87
4.81
6.51
7.96
9.13
10.03
10.65
11.02
11.14
11.04
10.75
10.35
9.87
9.40
8.96
8.55
8.15
7.72
7.22
6.63
6.00
5.33
4.64
3.90
3.08
2.19
1.24
0.28
-0.66
-1.56
-2.47
-3.39
-4.36
-5.40
-6.54
-7.80
-9.25
-10.89
-12.71
-14.62
-16.46
-18.02
-19.04
-19.25
-18.48
-16.70
-14.06
-10.84
-7.41
-4.11
-1.14
1.42
3.58
5.41
6.98
8.32
9.45
10.36
11.02
11.38
11.45
11.25
10.87
10.41
10.01
9.74
9.63
9.67
9.76
9.82
9.73
9.42
8.89
8.16
7.29
6.34
5.32
4.26
3.19
2.12
1.09
0.07
-0.96
-2.06
-3.19
-4.33
-5.37
-6.29
-7.14
-8.04
-9.13
-10.50
-12.17
-14.06
-16.03
-17.85
-19.25
-19.89
-19.56
-18.19
-15.91
-13.03
-9.90
-6.79
-3.85
-1.10
1.43
3.74
5.74
7.38
8.66
9.62
10.29
10.69
10.77
10.56
10.11
9.60
9.18
8.98
9.01
9.15
9.26
9.19
8.91
8.45
7.89
7.31
6.75
6.22
5.70
5.17
4.60
3.94
3.12
2.07
0.77
-0.74
-2.31
-3.75
-4.90
-5.72
-6.34
-7.03
-8.01
-9.41
-11.22
-13.24
-15.26
-17.04
-18.38
-19.08
-18.93
-17.82
-15.72
-12.81
-9.39
-5.85
-2.52
0.44
2.97
5.12
6.92
8.35
9.36
9.92
10.10
10.02
9.84
9.68
9.58
9.51
9.40
9.19
8.88
8.50
8.08
7.63
7.16
6.65
6.10
5.55
4.98
4.41
3.79
3.08
2.22
1.17
-0.06
-1.44
-2.88
-4.24
-5.41
-6.35
-7.10
-7.83
-8.74
-10.01
-11.66
-13.53
-15.28
-16.49
-16.79
-15.99
-14.11
-11.39
-8.15
-4.76
-1.47
1.50
4.05
6.15
7.83
9.14
10.12
10.84
11.32
11.56
11.61
11.51
11.32
11.07
10.77
10.37
9.85
9.19
8.44
7.69
6.98
6.35
5.77
5.19
4.58
3.92
3.23
2.50
1.73
0.88
-0.07
-1.16
-2.40
-3.74
-5.11
-6.43
-7.69
-8.91
-10.20
-11.66
-13.29
-14.95
-16.38
-17.25
-17.27
-16.32
-14.46
-11.91
-8.95
-5.87
-2.87
-0.06
2.50
4.76
6.69
8.21
9.24
9.77
9.87
9.68
9.40
9.19
9.11
9.12
9.10
8.94
8.61
8.16
7.67
7.21
6.78
6.37
5.94
5.46
4.94
4.37
3.74
3.03
2.19
1.19
0.04
-1.26
-2.65
-4.04
-5.36
-6.57
-7.72
-8.91
-10.30
-11.96
-13.82
-15.62
-16.97
-17.47
-16.85
-15.11
-12.47
-9.33
-6.09
-3.04
-0.34
2.02
4.07
5.85
7.31
8.38
9.02
9.24
9.12
8.83
8.50
8.24
8.08
7.97
7.82
7.52
7.02
6.35
5.65
5.06
4.71
4.58
4.54
4.37
3.91
3.11
2.04
0.86
-0.27
-1.26
-2.15
-3.02
-3.98
-5.09
-6.35
-7.68
-9.04
-10.40
-11.78
-13.16
-14.46
-15.42
-15.73
-15.09
-13.36
-10.69
-7.44
-4.13
-1.15
1.25
3.07
4.42
5.46
6.30
7.01
7.60
8.10
8.51
8.85
9.06
9.11
8.95
8.59
8.05
7.42
6.78
6.18
5.68
5.33
5.12
5.00
4.84
4.49
3.80
2.75
1.41
-0.03
-1.39
-2.56
-3.54
-4.45
-5.45
-6.66
-8.15
-9.89
-11.72
-13.38
-14.57
-15.01
-14.53
-13.16
-11.07
-8.53
-5.84
-3.21
-0.75
1.49
3.53
5.33
6.84
8.00
8.82
9.32
9.58
9.71
9.79
9.83
9.80
9.65
9.39
9.02
8.61
8.20
7.79
7.33
6.77
6.07
5.23
4.30
3.29
2.26
1.21
0.16
-0.89
-1.92
-2.91
-3.83
-4.68
-5.46
-6.22
-7.03
-8.04
-9.38
-11.14
-13.23
-15.38
-17.20
-18.23
-18.17
-16.91
-14.63
-11.66
-8.38
-5.13
-2.13
0.54
2.83
4.77
6.34
7.54
8.38
8.90
9.15
9.23
9.21
9.17
9.13
9.10
9.04
8.88
8.56
8.06
7.41
6.71
6.08
5.59
5.20
4.85
4.37
3.67
2.74
1.64
0.50
-0.56
-1.47
-2.24
-2.93
-3.70
-4.72
-6.11
-7.96
-10.16
-12.51
-14.67
-16.32
-17.22
-17.28
-16.55
-15.16
-13.27
-11.01
-8.48
-5.82
-3.21
-0.82
1.23
2.89
4.24
5.35
6.30
7.08
7.64
7.95
8.06
8.08
8.11
8.18
8.22
8.08
7.66
6.95
6.08
5.22
4.49
3.92
3.42
2.81
2.01
1.01
-0.08
-1.11
-2.00
-2.82
-3.70
-4.86
-6.42
-8.36
-10.49
-12.53
-14.19
-15.29
-15.72
-15.45
-14.51
-12.97
-10.90
-8.44
-5.71
-2.87
-0.05
2.65
5.08
7.14
8.72
9.74
10.27
10.41
10.37
10.32
10.35
10.45
10.51
10.44
10.17
9.71
9.12
8.48
7.82
7.16
6.48
5.77
5.00
4.16
3.20
2.12
0.93
-0.35
-1.67
-3.01
-4.37
-5.77
-7.24
-8.77
-10.32
-11.83
-13.17
-14.19
-14.67
-14.42
-13.31
-11.40
-8.91
-6.20
-3.58
-1.21
0.91
2.91
4.89
6.81
8.52
9.82
10.60
10.91
10.91
10.79
10.63
10.43
10.13
9.70
9.21
8.79
8.51
8.34
8.15
7.77
7.10
6.18
5.14
4.12
3.19
2.32
1.45
0.52
-0.51
-1.63
-2.84
-4.18
-5.66
-7.31
-9.09
-10.95
-12.78
-14.48
-15.93
-16.94
-17.31
-16.87
-15.54
-13.41
-10.69
-7.69
-4.65
-1.77
0.83
3.07
4.89
6.30
7.36
8.23
9.06
9.93
10.78
11.49
11.90
11.99
11.79
11.43
11.01
10.59
10.15
9.67
9.15
8.61
8.10
7.63
7.13
6.51
5.68
4.60
3.29
1.84
0.38
-0.96
-2.12
-3.14
-4.07
-5.02
-6.06
-7.25
-8.62
-10.17
-11.92
-13.80
-15.68
-17.33
-18.46
-18.80
-18.16
-16.57
-14.20
-11.36
-8.35
-5.42
-2.66
-0.09
2.27
4.37
6.10
7.38
8.17
8.57
8.74
8.82
8.90
8.98
8.99
8.90
8.68
8.35
7.92
7.37
6.68
5.86
4.98
4.14
3.45
2.94
2.52
2.04
1.35
0.37
-0.86
-2.19
-3.45
-4.54
-5.53
-6.57
-7.85
-9.46
-11.29
-13.07
-14.44
-15.11
-14.90
-13.79
-11.89
-9.40
-6.54
-3.51
-0.52
2.27
4.74
6.83
8.53
9.85
10.81
11.42
11.71
11.73
11.58
11.36
11.14
10.90
10.58
10.11
9.46
8.69
7.91
7.25
6.75
6.38
6.04
5.59
4.89
3.87
2.55
1.05
-0.48
-1.90
-3.15
-4.29
-5.42
-6.70
-8.22
-10.00
-11.97
-13.98
-15.84
-17.27
-17.96
-17.67
-16.29
-13.93
-10.93
-7.70
-4.60
-1.79
0.75
3.15
5.44
7.52
9.19
10.25
10.63
10.43
9.90
9.31
8.86
8.61
8.48
8.33
8.04
7.55
6.87
6.09
5.31
4.62
4.06
3.60
3.15
2.61
1.90
1.04
0.08
-0.87
-1.75
-2.60
-3.51
-4.63
-6.05
-7.76
-9.68
-11.65
-13.50
-15.05
-16.12
-16.54
-16.15
-14.92
-12.93
-10.41
-7.62
-4.80
-2.10
0.43
2.77
4.90
6.77
8.29
9.43
10.19
10.62
10.81
10.79
10.63
10.36
10.04
9.72
9.44
9.21
8.98
8.69
8.29
7.74
7.07
6.28
5.40
4.44
3.43
2.40
1.38
0.41
-0.50
-1.37
-2.25
-3.21
-4.36
-5.78
-7.53
-9.58
-11.77
-13.86
-15.55
-16.57
-16.74
-15.99
-14.40
-12.13
-9.41
-6.47
-3.51
-0.67
1.95
4.29
6.30
7.87
8.91
9.39
9.38
9.09
8.76
8.54
8.47
8.43
8.27
7.91
7.36
6.71
6.07
5.46
4.89
4.30
3.69
3.10
2.52
1.92
1.22
0.33
-0.77
-1.99
-3.23
-4.39
-5.47
-6.62
-7.99
-9.71
-11.74
-13.87
-15.72
-16.91
-17.14
-16.33
-14.59
-12.18
-9.42
-6.55
-3.73
-1.03
1.44
3.57
5.21
6.27
6.78
6.86
6.71
6.51
6.34
6.17
5.90
5.36
4.43
3.11
1.49
-0.27
-1.93
-3.29
-4.26
-4.88
-5.37
-5.98
-6.96
-8.43
-10.37
-12.63
-14.99
-17.27
-19.35
-21.22
-22.92
-24.50
-26.03
-27.58
-29.20
-30.90
-32.59
-34.01
-34.83
-34.70
-33.44
-31.05
-27.77
-23.98
-20.05
-16.24
-12.62
-9.11
-5.58
-1.94
1.77
5.37
8.63
11.39
13.60
15.37
16.90
18.31
19.62
20.71
21.43
21.70
21.58
21.23
20.80
20.40
19.99
19.51
18.86
18.03
17.07
16.01
14.88
13.66
12.32
10.80
9.11
7.25
5.23
3.07
0.79
-1.59
-4.05
-6.55
-9.06
-11.42
-13.40
-14.68
-14.96
-14.04
-11.99
-9.05
-5.62
-2.09
1.29
4.37
7.12
9.51
11.46
12.92
13.86
14.35
14.53
14.57
14.59
14.58
14.43
14.03
13.32
12.39
11.42
10.65
10.19
10.01
9.85
9.44
8.55
7.12
5.29
3.30
1.35
-0.45
-2.13
-3.73
-5.30
-6.86
-8.46
-10.20
-12.24
-14.68
-17.44
-20.20
-22.47
-23.76
-23.71
-22.27
-19.64
-16.18
-12.26
-8.15
-4.01
0.06
3.96
7.58
10.77
13.40
15.42
16.80
17.62
17.96
17.91
17.53
16.87
15.92
14.71
13.31
11.86
10.52
9.41
8.56
7.88
7.20
6.33
5.15
3.65
1.88
0.02
-1.80
-3.47
-4.97
-6.35
-7.71
-9.20
-10.96
-13.07
-15.51
-18.18
-20.85
-23.19
-24.87
-25.55
-25.05
-23.33
-20.56
-17.09
-13.29
-9.51
-5.97
-2.77
0.13
2.80
5.31
7.67
9.88
11.87
13.58
14.94
15.94
16.60
17.01
17.26
17.42
17.51
17.50
17.31
16.89
16.24
15.41
14.47
13.47
12.39
11.15
9.67
7.88
5.80
3.52
1.16
-1.14
-3.33
-5.44
-7.56
-9.83
-12.36
-15.18
-18.20
-21.20
-23.85
-25.77
-26.59
-26.02
-23.94
-20.45
-15.90
-10.76
-5.54
-0.59
3.88
7.84
11.28
14.16
16.38
17.89
18.72
19.06
19.16
19.21
19.28
19.31
19.14
18.68
17.95
17.08
16.24
15.55
15.02
14.56
13.99
13.15
11.96
10.43
8.68
6.82
4.98
3.20
1.48
-0.24
-2.02
-3.95
-6.06
-8.36
-10.77
-13.07
-15.00
-16.23
-16.49
-15.67
-13.83
-11.16
-7.93
-4.39
-0.71
2.99
6.58
9.87
12.62
14.61
15.76
16.18
16.16
16.03
16.02
16.18
16.38
16.39
16.03
15.22
14.02
12.58
11.13
9.84
8.80
7.97
7.24
6.46
5.53
4.45
3.27
2.04
0.72
-0.72
-2.33
-4.07
-5.81
-7.47
-9.03
-10.62
-12.41
-14.46
-16.60
-18.39
-19.35
-19.04
-17.30
-14.28
-10.37
-6.03
-1.69
2.32
5.84
8.82
11.28
13.27
14.82
15.96
16.71
17.13
17.32
17.41
17.53
17.70
17.84
17.81
17.51
16.97
16.31
15.70
15.23
14.80
14.21
13.22
11.71
9.77
7.64
5.58
3.77
2.21
0.77
-0.70
-2.32
-4.06
-5.88
-7.76
-9.73
-11.86
-14.15
-16.41
-18.26
-19.25
-19.00
-17.41
-14.67
-11.24
-7.58
-4.07
-0.86
2.08
4.79
7.27
9.39
10.99
11.96
12.35
12.31
12.09
11.88
11.76
11.66
11.46
11.06
10.46
9.75
9.07
8.51
8.11
7.79
7.41
6.83
5.95
4.83
3.58
2.34
1.18
0.09
-1.01
-2.22
-3.56
-5.00
-6.48
-7.99
-9.55
-11.17
-12.78
-14.20
-15.17
-15.45
-14.91
-13.59
-11.66
-9.34
-6.85
-4.35
-1.94
0.27
2.19
3.73
4.79
5.36
5.50
5.34
5.07
4.87
4.82
4.88
4.88
4.68
4.17
3.42
2.58
1.85
1.35
1.01
0.66
0.14
-0.64
-1.64
-2.72
-3.74
-4.68
-5.59
-6.59
-7.72
-8.96
-10.19
-11.27
-12.11
-12.66
-12.94
-12.92
-12.58
-11.92
-10.93
-9.65
-8.16
-6.56
-4.91
-3.30
-1.76
-0.34
0.90
1.91
2.65
3.11
3.31
3.32
3.21
3.06
2.94
2.83
2.70
2.46
2.04
1.44
0.68
-0.16
-1.02
-1.84
-2.63
-3.35
-4.00
-4.60
-5.20
-5.94
-6.96
-8.36
-10.11
-12.09
-14.05
-15.75
-16.99
-17.65
-17.68
-17.06
-15.82
-14.04
-11.87
-9.48
-7.05
-4.70
-2.49
-0.41
1.52
3.26
4.77
5.98
6.89
7.49
7.77
7.69
7.23
6.41
5.35
4.31
3.52
3.12
3.10
3.24
3.29
3.01
2.32
1.27
-0.01
-1.34
-2.57
-3.64
-4.55
-5.40
-6.36
-7.58
-9.18
-11.16
-13.42
-15.71
-17.75
-19.25
-19.96
-19.73
-18.55
-16.55
-13.99
-11.18
-8.41
-5.81
-3.46
-1.32
0.58
2.19
3.43
4.27
4.75
4.97
5.08
5.16
5.25
5.29
5.22
5.02
4.71
4.37
4.02
3.69
3.32
2.82
2.09
1.12
-0.05
-1.27
-2.39
-3.31
-4.00
-4.56
-5.19
-6.06
-7.35
-9.09
-11.22
-13.49
-15.56
-17.02
-17.56
-17.00
-15.37
-12.90
-9.88
-6.64
-3.43
-0.38
2.41
4.89
7.01
8.76
10.12
11.08
11.68
12.00
12.15
12.27
12.42
12.62
12.79
12.85
12.75
12.53
12.31
12.15
12.03
11.84
11.38
10.55
9.35
7.98
6.69
5.67
4.96
4.38
3.65
2.50
0.79
-1.45
-3.99
-6.51
-8.66
-10.15
-10.78
-10.48
-9.29
-7.36
-4.91
-2.19
0.57
3.21
5.67
7.92
9.92
11.61
12.88
13.63
13.81
13.47
12.71
11.65
10.37
8.93
7.34
5.66
3.98
2.43
1.12
0.12
-0.57
-1.03
-1.37
-1.70
-2.06
-2.48
-2.92
-3.40
-3.92
-4.57
-5.41
-6.50
-7.81
-9.18
-10.38
-11.14
-11.23
-10.55
-9.16
-7.28
-5.22
-3.21
-1.40
0.19
1.59
2.82
3.83
4.56
4.97
5.14
5.20
5.34
5.69
6.34
7.25
8.38
9.65
11.01
12.41
13.81
15.17
16.51
17.84
19.21
20.63
22.03
23.24
24.02
24.11
23.30
21.51
18.77
15.28
11.29
7.13
3.11
-0.48
-3.45
-5.68
-7.13
-7.87
-8.07
-7.94
-7.68
-7.48
-7.41
-7.51
-7.73
-7.99
-8.23
-8.40
-8.50
-8.48
-8.32
-8.02
-7.57
-7.08
-6.64
-6.38
-6.33
-6.46
-6.65
-6.77
-6.72
-6.45
-6.01
-5.44
-4.82
-4.18
-3.51
-2.78
-1.98
-1.14
-0.34
0.30
0.62
0.50
-0.11
-1.15
-2.49
-3.96
-5.38
-6.61
-7.55
-8.13
-8.31
-8.10
-7.61
-7.05
-6.65
-6.63
-7.05
-7.83
-8.75
-9.54
-10.03
-10.12
-9.88
-9.43
-8.91
-8.47
-8.20
-8.16
-8.39
-8.83
-9.37
-9.88
-10.25
-10.38
-10.29
-9.97
-9.42
-8.61
-7.51
-6.18
-4.78
-3.56
-2.75
-2.44
-2.52
-2.72
-2.67
-2.06
-0.69
1.50
4.43
8.01
12.10
16.55
21.17
25.72
29.91
33.45
36.07
37.63
38.07
37.45
35.94
33.77
31.25
28.67
26.29
24.31
22.80
21.81
21.30
21.21
21.42
21.74
21.97
21.92
21.52
20.83
20.01
19.22
18.46
17.60
16.42
14.77
12.65
10.27
8.00
6.18
5.07
4.77
5.20
6.16
7.40
8.61
9.53
9.89
9.49
8.19
5.94
2.78
-1.11
-5.48
-10.01
-14.42
-18.48
-22.09
-25.20
-27.84
-30.03
-31.80
-33.18
-34.18
-34.80
-35.03
-34.91
-34.52
-34.05
-33.73
-33.74
-34.14
-34.87
-35.76
-36.59
-37.24
-37.63
-37.74
-37.46
-36.69
-35.24
-33.04
-30.13
-26.73
-23.13
-19.65
-16.51
-13.78
-11.41
-9.26
-7.20
-5.15
-3.15
-1.33
0.12
1.09
1.55
1.64
1.57
1.57
1.71
1.99
2.23
2.28
2.01
1.44
0.68
-0.15
-0.96
-1.73
-2.52
-3.40
-4.42
-5.59
-6.91
-8.35
-9.85
-11.27
-12.35
-12.79
-12.36
-11.01
-8.94
-6.48
-4.01
-1.69
0.52
2.82
5.40
8.27
11.18
13.74
15.59
16.57
16.72
16.28
15.56
14.79
14.12
13.63
13.37
13.42
13.82
14.61
15.74
17.08
18.45
19.61
20.39
20.69
20.55
20.12
19.58
19.14
18.88
18.78
18.70
18.40
17.68
16.38
14.48
12.11
9.49
6.93
4.67
2.92
1.78
1.24
1.21
1.60
2.31
3.21
4.16
4.96
5.41
5.37
4.81
3.80
2.51
1.15
-0.15
-1.34
-2.48
-3.66
-4.93
-6.30
-7.73
-9.17
-10.65
-12.28
-14.21
-16.57
-19.34
-22.37
-25.39
-28.15
-30.44
-32.24
-33.62
-34.68
-35.57
-36.39
-37.23
-38.13
-39.02
-39.77
-40.13
-39.81
-38.61
-36.42
-33.29
-29.41
-25.05
-20.51
-16.13
-12.17
-8.80
-6.08
-3.95
-2.34
-1.21
-0.58
-0.48
-0.79
-1.25
-1.44
-1.00
0.31
2.40
4.94
7.44
9.44
10.69
11.17
11.07
10.64
10.13
9.72
9.50
9.56
9.91
10.53
11.27
11.90
12.19
12.03
11.54
11.06
11.03
11.77
13.29
15.28
17.23
18.66
19.31
19.23
18.67
17.88
16.98
15.92
14.52
12.62
10.22
7.47
4.65
2.00
-0.37
-2.44
-4.26
-5.83
-7.04
-7.71
-7.65
-6.85
-5.50
-4.00
-2.79
-2.18
-2.22
-2.72
-3.33
-3.76
-3.90
-3.83
-3.71
-3.69
-3.82
-4.04
-4.26
-4.43
-4.50
-4.38
-3.90
-2.87
-1.15
1.21
3.99
6.79
9.19
10.91
11.82
12.03
11.70
11.08
10.33
9.56
8.83
8.14
7.46
6.76
6.03
5.26
4.47
3.66
2.85
2.02
1.19
0.38
-0.37
-1.09
-1.83
-2.71
-3.82
-5.17
-6.68
-8.24
-9.74
-11.18
-12.68
-14.34
-16.20
-18.11
-19.76
-20.82
-21.04
-20.31
-18.72
-16.45
-13.71
-10.71
-7.59
-4.47
-1.48
1.32
3.85
6.04
7.83
9.18
10.05
10.51
10.67
10.69
10.66
10.61
10.46
10.09
9.43
8.52
7.51
6.60
5.89
5.38
4.90
4.24
3.26
1.92
0.39
-1.13
-2.44
-3.52
-4.49
-5.60
-7.10
-9.06
-11.39
-13.83
-16.07
-17.82
-18.94
-19.35
-19.09
-18.21
-16.77
-14.84
-12.53
-9.98
-7.40
-4.98
-2.83
-0.97
0.66
2.16
3.59
4.95
6.19
7.27
8.17
8.94
9.61
10.23
10.81
11.35
11.91
12.53
13.26
14.10
14.92
15.55
15.78
15.44
14.43
12.74
10.49
7.81
4.93
2.04
-0.65
-3.03
-5.02
-6.60
-7.83
-8.77
-9.43
-9.77
-9.69
-9.11
-8.01
-6.53
-4.91
-3.47
-2.43
-1.86
-1.65
-1.65
-1.74
-1.91
-2.23
-2.80
-3.61
-4.52
-5.31
-5.75
-5.75
-5.36
-4.78
-4.25
-3.99
-4.09
-4.48
-5.04
-5.61
-6.07
-6.40
-6.69
-7.06
-7.62
-8.45
-9.54
-10.87
-12.42
-14.13
-15.87
-17.36
-18.23
-18.07
-16.67
-14.09
-10.69
-6.99
-3.45
-0.28
2.53
5.14
7.63
9.93
11.83
13.14
13.85
14.12
14.25
14.45
14.79
15.11
15.23
15.01
14.51
13.97
13.62
13.60
13.81
14.03
13.95
13.41
12.43
11.17
9.83
8.52
7.22
5.82
4.24
2.44
0.48
-1.52
-3.50
-5.38
-7.10
-8.52
-9.42
-9.56
-8.82
-7.20
-4.94
-2.35
0.27
2.74
4.99
7.00
8.75
10.22
11.37
12.20
12.80
13.26
13.66
14.01
14.25
14.31
14.12
13.70
13.09
12.39
11.70
11.06
10.49
9.95
9.34
8.59
7.62
6.43
5.10
3.75
2.50
1.44
0.56
-0.24
-1.11
-2.19
-3.54
-5.17
-6.97
-8.76
-10.29
-11.34
-11.67
-11.17
-9.83
-7.76
-5.21
-2.46
0.24
2.71
4.85
6.60
7.94
8.86
9.37
9.57
9.58
9.51
9.44
9.36
9.20
8.90
8.45
7.88
7.30
6.77
6.36
6.01
5.66
5.25
4.74
4.13
3.46
2.75
1.99
1.15
0.21
-0.82
-1.96
-3.18
-4.50
-5.94
-7.48
-9.01
-10.27
-10.94
-10.76
-9.60
-7.54
-4.89
-2.02
0.76
3.23
5.36
7.16
8.65
9.81
10.60
10.96
10.94
10.64
10.23
9.86
9.65
9.62
9.70
9.74
9.62
9.27
8.73
8.08
7.44
6.85
6.33
5.83
5.28
4.62
3.81
2.83
1.68
0.39
-1.00
-2.40
-3.76
-5.10
-6.48
-7.94
-9.49
-10.96
-12.10
-12.62
-12.33
-11.19
-9.37
-7.13
-4.74
-2.40
-0.23
1.71
3.39
4.76
5.83
6.62
7.20
7.63
7.94
8.10
8.11
7.98
7.78
7.59
7.44
7.25
6.95
6.48
5.88
5.28
4.78
4.42
4.10
3.65
2.95
1.99
0.87
-0.25
-1.26
-2.13
-2.95
-3.86
-4.99
-6.39
-8.00
-9.63
-11.05
-11.98
-12.24
-11.76
-10.59
-8.89
-6.87
-4.75
-2.70
-0.85
0.72
1.94
2.78
3.28
3.48
3.50
3.41
3.32
3.26
3.22
3.19
3.11
2.94
2.64
2.23
1.72
1.17
0.62
0.12
-0.33
-0.78
-1.31
-1.99
-2.84
-3.83
-4.90
-5.97
-7.04
-8.18
-9.47
-10.98
-12.69
-14.48
-16.19
-17.67
-18.83
-19.61
-19.97
-19.83
-19.13
-17.82
-15.93
-13.57
-10.95
-8.24
-5.63
-3.24
-1.15
0.61
2.01
3.10
3.94
4.63
5.27
5.92
6.58
7.15
7.51
7.59
7.36
6.88
6.29
5.72
5.27
4.97
4.76
4.50
4.04
3.25
2.11
0.69
-0.87
-2.47
-4.03
-5.56
-7.11
-8.68
-10.19
-11.46
-12.26
-12.41
-11.83
-10.52
-8.58
-6.14
-3.35
-0.41
2.46
5.05
7.18
8.77
9.85
10.52
10.94
11.22
11.43
11.61
11.76
11.88
11.96
11.98
11.89
11.63
11.14
10.46
9.67
8.87
8.12
7.37
6.51
5.41
3.98
2.27
0.42
-1.37
-2.96
-4.32
-5.52
-6.75
-8.20
-9.98
-12.08
-14.24
-16.09
-17.23
-17.34
-16.32
-14.32
-11.66
-8.67
-5.61
-2.61
0.28
3.02
5.50
7.61
9.24
10.39
11.17
11.70
12.11
12.43
12.64
12.71
12.63
12.41
12.09
11.69
11.22
10.66
10.00
9.23
8.34
7.27
6.03
4.62
3.12
1.62
0.20
-1.11
-2.35
-3.65
-5.16
-6.96
-9.04
-11.21
-13.15
-14.49
-14.95
-14.44
-13.04
-11.01
-8.65
-6.17
-3.67
-1.15
1.37
3.84
6.09
7.98
9.39
10.36
11.00
11.43
11.74
11.91
11.89
11.63
11.13
10.48
9.78
9.12
8.49
7.84
7.12
6.29
5.34
4.26
3.06
1.73
0.29
-1.22
-2.71
-4.07
-5.25
-6.30
-7.33
-8.49
-9.89
-11.53
-13.25
-14.74
-15.61
-15.57
-14.48
-12.46
-9.82
-6.92
-4.05
-1.36
1.14
3.46
5.57
7.41
8.89
9.95
10.64
11.02
11.15
11.06
10.73
10.22
9.60
9.01
8.58
8.33
8.22
8.15
7.99
7.67
7.15
6.42
5.50
4.39
3.13
1.79
0.46
-0.78
-1.89
-2.91
-3.89
-4.91
-5.96
-6.95
-7.73
-8.15
-8.10
-7.57
-6.62
-5.34
-3.85
-2.23
-0.56
1.05
2.48
3.66
4.54
5.12
5.47
5.65
5.70
5.65
5.51
5.31
5.10
4.94
4.86
4.84
4.81
4.70
4.43
3.98
3.33
2.55
1.68
0.79
-0.04
-0.78
-1.41
-1.96
-2.49
-3.12
-3.91
-4.92
-6.12
-7.43
-8.70
-9.78
-10.52
-10.79
-10.52
-9.70
-8.36
-6.64
-4.74
-2.85
-1.16
0.28
1.45
2.40
3.15
3.73
4.15
4.44
4.62
4.71
4.73
4.66
4.51
4.28
4.02
3.74
3.48
3.23
2.98
2.76
2.57
2.43
2.26
1.98
1.46
0.64
-0.41
-1.56
-2.63
-3.52
-4.22
-4.84
-5.51
-6.34
-7.37
-8.54
-9.68
-10.57
-11.02
-10.89
-10.16
-8.94
-7.39
-5.67
-3.92
-2.21
-0.58
0.88
2.08
2.97
3.55
3.90
4.15
4.41
4.69
4.96
5.13
5.13
4.96
4.65
4.27
3.91
3.62
3.43
3.35
3.29
3.16
2.81
2.17
1.27
0.23
-0.81
-1.71
-2.44
-3.05
-3.65
-4.33
-5.16
-6.20
-7.43
-8.84
-10.31
-11.67
-12.66
-13.01
-12.54
-11.25
-9.35
-7.15
-4.97
-3.00
-1.33
0.07
1.24
2.18
2.89
3.37
3.67
3.90
4.12
4.33
4.44
4.41
4.22
3.97
3.79
3.74
3.80
3.85
3.78
3.51
3.04
2.44
1.79
1.15
0.52
-0.12
-0.81
-1.56
-2.38
-3.23
-4.11
-5.03
-6.04
-7.19
-8.44
-9.70
-10.79
-11.51
-11.70
-11.35
-10.50
-9.31
-7.93
-6.49
-5.01
-3.50
-1.91
-0.21
1.55
3.24
4.67
5.69
6.25
6.42
6.37
6.28
6.23
6.21
6.13
5.94
5.63
5.31
5.06
4.93
4.87
4.78
4.58
4.19
3.62
2.90
2.09
1.22
0.31
-0.62
-1.57
-2.52
-3.51
-4.61
-5.91
-7.45
-9.19
-10.96
-12.49
-13.50
-13.79
-13.30
-12.11
-10.42
-8.37
-6.12
-3.74
-1.33
0.99
3.07
4.78
6.05
6.90
7.41
7.72
7.87
7.91
7.81
7.56
7.17
6.70
6.20
5.75
5.36
5.01
4.68
4.32
3.88
3.32
2.61
1.75
0.75
-0.36
-1.53
-2.67
-3.72
-4.66
-5.57
-6.54
-7.71
-9.09
-10.63
-12.16
-13.49
-14.45
-14.93
-14.86
-14.20
-12.94
-11.07
-8.65
-5.77
-2.65
0.50
3.48
6.12
8.30
9.96
11.11
11.80
12.16
12.32
12.38
12.40
12.37
12.28
12.09
11.83
11.51
11.13
10.69
10.13
9.41
8.53
7.51
6.40
5.26
4.10
2.91
1.68
0.38
-0.97
-2.30
-3.56
-4.72
-5.81
-6.89
-8.03
-9.25
-10.49
-11.61
-12.42
-12.74
-12.44
-11.46
-9.87
-7.79
-5.40
-2.88
-0.37
2.04
4.35
6.49
8.43
10.05
11.26
12.04
12.42
12.52
12.48
12.39
12.30
12.19
12.05
11.84
11.57
11.21
10.77
10.23
9.57
8.78
7.88
6.87
5.82
4.77
3.76
2.79
1.80
0.67
-0.66
-2.18
-3.78
-5.25
-6.42
-7.15
-7.43
-7.26
-6.65
-5.57
-4.04
-2.14
-0.08
1.88
3.47
4.58
5.21
5.52
5.69
5.81
5.90
5.92
5.87
5.78
5.74
5.80
5.91
5.99
5.93
5.74
5.50
5.32
5.24
5.21
5.04
4.58
3.75
2.70
1.62
0.73
0.11
-0.33
-0.78
-1.44
-2.43
-3.73
-5.24
-6.80
-8.25
-9.43
-10.17
-10.33
-9.80
-8.59
-6.84
-4.78
-2.66
-0.68
1.05
2.50
3.66
4.51
5.06
5.30
5.30
5.15
4.96
4.81
4.72
4.65
4.57
4.41
4.20
3.95
3.70
3.46
3.20
2.87
2.39
1.70
0.80
-0.26
-1.38
-2.46
-3.43
-4.32
-5.21
-6.24
-7.49
-8.96
-10.55
-12.07
-13.36
-14.25
-14.67
-14.55
-13.88
-12.63
-10.88
-8.79
-6.58
-4.53
-2.79
-1.39
-0.24
0.78
1.73
2.54
3.05
3.17
2.90
2.38
1.80
1.31
0.93
0.59
0.19
-0.30
-0.82
-1.27
-1.62
-1.90
-2.19
-2.58
-3.05
-3.56
-4.02
-4.44
-4.91
-5.58
-6.55
-7.83
-9.31
-10.79
-12.04
-12.85
-13.05
-12.57
-11.42
-9.71
-7.61
-5.31
-2.98
-0.73
1.39
3.31
4.94
6.15
6.87
7.13
7.08
6.94
6.89
6.97
7.07
7.03
6.75
6.29
5.81
5.50
5.40
5.39
5.24
4.78
3.97
2.93
1.83
0.79
-0.15
-1.08
-2.08
-3.23
-4.57
-6.11
-7.82
-9.57
-11.16
-12.30
-12.74
-12.35
-11.16
-9.38
-7.29
-5.15
-3.16
-1.43
0.01
1.14
2.01
2.70
3.28
3.81
4.31
4.72
4.98
5.08
5.01
4.84
4.61
4.37
4.09
3.76
3.37
2.90
2.37
1.80
1.21
0.59
-0.08
-0.84
-1.73
-2.76
-3.95
-5.30
-6.80
-8.42
-10.05
-11.50
-12.53
-12.92
-12.50
-11.29
-9.43
-7.16
-4.77
-2.49
-0.48
1.24
2.65
3.80
4.72
5.44
5.97
6.33
6.50
6.47
6.25
5.88
5.41
4.90
4.41
3.93
3.43
2.85
2.17
1.41
0.64
-0.01
-0.49
-0.81
-1.12
-1.59
-2.37
-3.51
-4.96
-6.60
-8.29
-9.88
-11.24
-12.15
-12.43
-11.94
-10.68
-8.83
-6.69
-4.54
-2.59
-0.89
0.60
1.92
3.08
4.05
4.80
5.30
5.58
5.67
5.58
5.31
4.87
4.32
3.73
3.19
2.72
2.34
1.97
1.57
1.09
0.54
-0.05
-0.66
-1.28
-1.91
-2.60
-3.38
-4.28
-5.35
-6.59
-7.99
-9.48
-10.88
-11.94
-12.38
-12.01
-10.80
-8.92
-6.63
-4.24
-2.00
0.01
1.79
3.38
4.75
5.84
6.55
6.86
6.81
6.54
6.25
6.05
6.00
6.05
6.08
5.99
5.70
5.17
4.41
3.49
2.51
1.60
0.82
0.21
-0.30
-0.83
-1.48
-2.36
-3.47
-4.82
-6.34
-7.95
-9.48
-10.72
-11.40
-11.33
-10.44
-8.80
-6.65
-4.27
-1.94
0.17
1.99
3.54
4.89
6.11
7.19
8.08
8.66
8.87
8.70
8.28
7.77
7.30
6.93
6.59
6.20
5.71
5.11
4.42
3.64
2.75
1.70
0.51
-0.73
-1.89
-2.89
-3.73
-4.59
-5.65
-7.07
-8.82
-10.65
-12.20
-13.12
-13.22
-12.54
-11.26
-9.60
-7.73
-5.70
-3.50
-1.18
1.16
3.33
5.17
6.55
7.44
7.86
7.90
7.69
7.36
7.07
6.91
6.92
7.01
7.06
6.96
6.68
6.27
5.75
5.14
4.37
3.39
2.21
0.91
-0.37
-1.51
-2.52
-3.50
-4.63
-6.04
-7.72
-9.52
-11.18
-12.38
-12.86
-12.47
-11.27
-9.44
-7.24
-4.92
-2.65
-0.49
1.55
3.44
5.11
6.49
7.51
8.16
8.47
8.51
8.36
8.06
7.68
7.24
6.80
6.40
6.04
5.75
5.48
5.17
4.76
4.17
3.32
2.23
0.93
-0.47
-1.91
-3.35
-4.83
-6.37
-8.01
-9.67
-11.23
-12.49
-13.21
-13.20
-12.35
-10.70
-8.46
-5.92
-3.40
-1.10
0.89
2.63
4.21
5.68
7.05
8.25
9.20
9.87
10.24
10.28
10.00
9.43
8.69
7.96
7.39
7.04
6.79
6.46
5.88
4.97
3.82
2.57
1.39
0.32
-0.65
-1.60
-2.58
-3.61
-4.69
-5.83
-7.05
-8.34
-9.61
-10.66
-11.24
-11.13
-10.18
-8.41
-6.03
-3.34
-0.65
1.77
3.83
5.53
6.94
8.15
9.16
9.91
10.35
10.47
10.34
10.09
9.83
9.61
9.38
9.04
8.50
7.76
6.85
5.87
4.93
4.08
3.31
2.54
1.67
0.63
-0.57
-1.88
-3.21
-4.53
-5.90
-7.42
-9.14
-10.94
-12.53
-13.49
-13.51
-12.50
-10.65
-8.36
-5.97
-3.68
-1.50
0.66
2.87
5.05
7.02
8.56
9.57
10.08
10.23
10.19
10.08
9.91
9.60
9.09
8.38
7.57
6.81
6.22
5.85
5.62
5.35
4.88
4.09
3.00
1.73
0.46
-0.70
-1.73
-2.70
-3.72
-4.92
-6.34
-7.92
-9.50
-10.84
-11.65
-11.69
-10.82
-9.06
-6.61
-3.77
-0.84
1.93
4.44
6.66
8.59
10.21
11.46
12.28
12.65
12.58
12.16
11.46
10.62
9.74
8.95
8.30
7.79
7.35
6.86
6.23
5.45
4.56
3.63
2.68
1.63
0.39
-1.07
-2.69
-4.32
-5.85
-7.23
-8.60
-10.12
-11.87
-13.80
-15.60
-16.88
-17.23
-16.48
-14.69
-12.16
-9.29
-6.44
-3.79
-1.38
0.83
2.85
4.63
6.05
7.03
7.55
7.69
7.62
7.46
7.27
7.08
6.79
6.37
5.78
5.09
4.35
3.63
2.97
2.32
1.65
0.94
0.21
-0.50
-1.16
-1.82
-2.60
-3.65
-5.05
-6.79
-8.73
-10.63
-12.28
-13.46
-13.98
-13.73
-12.68
-10.86
-8.42
-5.60
-2.65
0.17
2.70
4.85
6.62
8.04
9.14
9.96
10.52
10.79
10.78
10.47
9.90
9.17
8.37
7.63
7.01
6.50
6.05
5.55
4.95
4.20
3.32
2.36
1.35
0.27
-0.87
-2.12
-3.49
-4.99
-6.61
-8.34
-10.11
-11.78
-13.13
-13.90
-13.89
-13.04
-11.48
-9.45
-7.19
-4.87
-2.54
-0.21
2.05
4.10
5.78
6.97
7.69
8.05
8.21
8.25
8.16
7.89
7.41
6.77
6.10
5.49
4.94
4.36
3.62
2.66
1.51
0.31
-0.81
-1.74
-2.47
-3.06
-3.64
-4.33
-5.25
-6.45
-7.93
-9.61
-11.38
-13.02
-14.32
-15.02
-14.91
-13.91
-12.06
-9.62
-6.88
-4.15
-1.63
0.60
2.57
4.30
5.77
6.91
7.64
7.96
7.92
7.64
7.22
6.74
6.22
5.66
5.09
4.51
3.94
3.36
2.74
2.04
1.29
0.53
-0.17
-0.80
-1.42
-2.13
-3.09
-4.38
-6.00
-7.85
-9.78
-11.62
-13.17
-14.27
-14.75
-14.49
-13.44
-11.69
-9.41
-6.85
-4.25
-1.76
0.52
2.54
4.26
5.63
6.60
7.17
7.40
7.36
7.17
6.90
6.60
6.27
5.87
5.39
4.82
4.16
3.45
2.72
1.99
1.29
0.64
0.07
-0.45
-0.96
-1.53
-2.27
-3.27
-4.60
-6.24
-8.10
-9.99
-11.70
-12.99
-13.64
-13.47
-12.42
-10.59
-8.19
-5.51
-2.85
-0.40
1.77
3.67
5.34
6.78
7.92
8.68
9.01
8.94
8.59
8.12
7.64
7.23
6.85
6.44
5.90
5.22
4.41
3.55
2.71
1.95
1.23
0.52
-0.26
-1.18
-2.23
-3.41
-4.71
-6.13
-7.67
-9.26
-10.76
-11.91
-12.48
-12.26
-11.23
-9.51
-7.36
-5.04
-2.74
-0.59
1.42
3.29
4.99
6.43
7.49
8.07
8.13
7.77
7.14
6.43
5.76
5.21
4.80
4.49
4.23
3.90
3.38
2.59
1.53
0.30
-1.00
-2.26
-3.46
-4.64
-5.88
-7.19
-8.57
-9.97
-11.42
-12.95
-14.53
-15.99
-17.00
-17.14
-16.12
-13.89
-10.73
-7.19
-3.84
-1.09
0.90
2.24
3.10
3.59
3.72
3.38
2.52
1.26
-0.11
-1.23
-1.88
-2.06
-1.99
-2.00
-2.31
-2.98
-3.85
-4.73
-5.41
-5.84
-6.07
-6.18
-6.23
-6.23
-6.19
-6.14
-6.14
-6.29
-6.66
-7.31
-8.19
-9.17
-10.07
-10.72
-11.03
-10.99
-10.71
-10.31
-9.89
-9.49
-9.08
-8.63
-8.12
-7.59
-7.12
-6.78
-6.63
-6.70
-6.98
-7.50
-8.22
-9.09
-10.03
-10.97
-11.87
-12.76
-13.68
-14.68
-15.78
-16.89
-17.95
-18.90
-19.76
-20.67
-21.82
-23.35
-25.28
-27.44
-29.49
-30.97
-31.45
-30.62
-28.41
-24.96
-20.55
-15.57
-10.39
-5.35
-0.73
3.31
6.70
9.48
11.79
13.84
15.79
17.71
19.60
21.39
23.05
24.61
26.13
27.62
28.98
30.02
30.56
30.53
30.01
29.19
28.25
27.25
26.09
24.57
22.55
20.00
16.99
13.61
9.95
6.01
1.84
-2.41
-6.52
-10.20
-13.28
-15.69
-17.51
-18.82
-19.61
-19.80
-19.22
-17.81
-15.64
-12.92
-9.99
-7.10
-4.41
-1.95
0.41
2.80
5.36
8.21
11.33
14.62
17.84
20.68
22.88
24.28
24.92
25.00
24.81
24.53
24.26
23.90
23.28
22.25
20.75
18.80
16.52
14.05
11.56
9.27
7.45
6.38
6.35
7.47
9.68
12.71
16.15
19.50
22.35
24.42
25.59
25.94
25.60
24.75
23.54
22.02
20.20
18.08
15.72
13.23
10.77
8.49
6.47
4.73
3.21
1.84
0.55
-0.69
-1.90
-3.13
-4.42
-5.85
-7.44
-9.18
-10.96
-12.65
-14.11
-15.28
-16.15
-16.72
-16.95
-16.69
-15.68
-13.71
-10.72
-6.86
-2.49
2.02
6.35
10.33
13.97
17.31
20.35
23.00
25.11
26.57
27.35
27.57
27.38
26.95
26.36
25.67
24.89
24.03
23.12
22.15
21.07
19.86
18.50
17.02
15.46
13.87
12.28
10.68
9.07
7.46
5.84
4.14
2.24
0.06
-2.42
-5.05
-7.53
-9.51
-10.64
-10.77
-9.89
-8.18
-5.91
-3.41
-0.95
1.30
3.26
4.94
6.39
7.63
8.61
9.23
9.43
9.20
8.61
7.79
6.88
5.99
5.16
4.41
3.76
3.20
2.70
2.19
1.59
0.82
-0.12
-1.19
-2.26
-3.23
-4.03
-4.70
-5.32
-6.03
-6.92
-8.04
-9.37
-10.80
-12.17
-13.30
-14.03
-14.24
-13.88
-13.02
-11.73
-10.13
-8.25
-6.13
-3.83
-1.44
0.86
2.85
4.40
5.44
6.06
6.42
6.68
6.89
7.02
6.98
6.67
6.11
5.38
4.63
3.98
3.46
3.02
2.50
1.78
0.84
-0.24
-1.29
-2.17
-2.83
-3.37
-3.96
-4.77
-5.90
-7.34
-8.94
-10.48
-11.68
-12.30
-12.23
-11.49
-10.21
-8.61
-6.87
-5.12
-3.42
-1.79
-0.31
0.97
1.99
2.75
3.29
3.68
3.95
4.10
4.08
3.90
3.59
3.24
2.97
2.81
2.73
2.63
2.40
1.94
1.21
0.27
-0.77
-1.80
-2.77
-3.70
-4.66
-5.73
-6.91
-8.15
-9.35
-10.44
-11.39
-12.15
-12.65
-12.77
-12.39
-11.45
-10.02
-8.25
-6.35
-4.49
-2.74
-1.14
0.29
1.52
2.49
3.17
3.59
3.78
3.81
3.72
3.54
3.29
3.01
2.74
2.51
2.32
2.10
1.81
1.37
0.79
0.10
-0.65
-1.41
-2.19
-3.03
-3.96
-5.00
-6.14
-7.36
-8.61
-9.85
-10.99
-11.92
-12.50
-12.59
-12.12
-11.13
-9.73
-8.06
-6.22
-4.31
-2.38
-0.53
1.13
2.49
3.47
4.10
4.45
4.60
4.61
4.50
4.29
4.04
3.84
3.75
3.75
3.72
3.50
2.98
2.17
1.17
0.13
-0.81
-1.61
-2.28
-2.86
-3.41
-4.00
-4.72
-5.67
-6.93
-8.44
-10.05
-11.52
-12.58
-13.05
-12.89
-12.14
-10.92
-9.36
-7.60
-5.76
-3.94
-2.19
-0.57
0.91
2.20
3.27
4.08
4.60
4.83
4.82
4.63
4.30
3.89
3.48
3.15
2.95
2.88
2.87
2.78
2.50
1.96
1.17
0.21
-0.84
-1.93
-3.03
-4.13
-5.26
-6.45
-7.73
-9.12
-10.52
-11.80
-12.74
-13.15
-12.90
-12.01
-10.58
-8.77
-6.71
-4.51
-2.28
-0.15
1.76
3.37
4.68
5.73
6.62
7.40
8.01
8.38
8.40
8.04
7.40
6.65
5.96
5.44
5.06
4.72
4.26
3.59
2.69
1.60
0.38
-0.88
-2.16
-3.43
-4.69
-5.98
-7.37
-8.92
-10.60
-12.30
-13.78
-14.77
-15.03
-14.52
-13.34
-11.75
-10.00
-8.26
-6.55
-4.84
-3.07
-1.25
0.52
2.09
3.33
4.16
4.57
4.63
4.44
4.13
3.80
3.54
3.40
3.34
3.28
3.07
2.57
1.73
0.56
-0.80
-2.22
-3.55
-4.77
-5.90
-7.04
-8.31
-9.77
-11.44
-13.25
-15.03
-16.55
-17.51
-17.66
-16.85
-15.13
-12.69
-9.82
-6.77
-3.72
-0.71
2.23
5.05
7.61
9.74
11.31
12.28
12.76
12.91
12.88
12.74
12.50
12.14
11.65
11.03
10.34
9.61
8.88
8.16
7.42
6.62
5.66
4.48
3.02
1.34
-0.46
-2.24
-3.93
-5.52
-7.10
-8.72
-10.34
-11.75
-12.64
-12.66
-11.63
-9.54
-6.65
-3.39
-0.18
2.62
4.84
6.50
7.69
8.54
9.10
9.40
9.42
9.19
8.79
8.33
7.85
7.38
6.87
6.27
5.60
4.88
4.16
3.46
2.71
1.82
0.66
-0.82
-2.59
-4.53
-6.51
-8.39
-10.11
-11.71
-13.30
-14.99
-16.81
-18.65
-20.19
-21.01
-20.74
-19.19
-16.46
-12.89
-8.94
-5.02
-1.37
1.95
4.97
7.72
10.15
12.14
13.59
14.48
14.88
14.91
14.69
14.29
13.76
13.13
12.47
11.87
11.42
11.11
10.89
10.58
10.01
9.06
7.76
6.26
4.75
3.35
2.07
0.79
-0.69
-2.56
-4.85
-7.41
-9.90
-11.88
-12.90
-12.67
-11.12
-8.41
-4.90
-1.05
2.71
6.07
8.85
11.01
12.58
13.64
14.26
14.51
14.49
14.24
13.81
13.23
12.48
11.58
10.54
9.39
8.20
7.07
6.04
5.11
4.21
3.22
2.05
0.66
-0.88
-2.47
-4.01
-5.50
-6.97
-8.54
-10.28
-12.25
-14.44
-16.76
-19.02
-20.93
-22.10
-22.13
-20.82
-18.19
-14.56
-10.40
-6.21
-2.32
1.07
3.90
6.15
7.83
8.98
9.68
10.06
10.27
10.45
10.63
10.78
10.85
10.78
10.57
10.23
9.75
9.16
8.44
7.59
6.59
5.46
4.23
2.97
1.72
0.49
-0.73
-1.99
-3.36
-4.88
-6.61
-8.52
-10.51
-12.29
-13.48
-13.68
-12.66
-10.45
-7.35
-3.83
-0.31
2.91
5.73
8.17
10.22
11.84
12.96
13.56
13.70
13.50
13.13
12.72
12.33
12.02
11.76
11.52
11.25
10.86
10.34
9.68
8.95
8.18
7.39
6.53
5.54
4.37
3.03
1.57
0.06
-1.45
-3.04
-4.80
-6.84
-9.20
-11.73
-14.13
-16.01
-16.99
-16.85
-15.59
-13.41
-10.67
-7.69
-4.74
-1.92
0.71
3.16
5.36
7.24
8.73
9.78
10.41
10.72
10.81
10.80
10.72
10.57
10.30
9.89
9.33
8.65
7.89
7.05
6.17
5.23
4.25
3.23
2.17
1.07
-0.04
-1.15
-2.20
-3.17
-4.16
-5.31
-6.84
-8.86
-11.28
-13.76
-15.80
-16.93
-16.89
-15.71
-13.66
-11.15
-8.53
-5.99
-3.57
-1.22
1.11
3.33
5.29
6.82
7.81
8.25
8.29
8.12
7.91
7.77
7.69
7.60
7.45
7.21
6.89
6.48
5.95
5.23
4.31
3.22
2.04
0.90
-0.10
-0.95
-1.75
-2.60
-3.63
-4.93
-6.51
-8.29
-10.11
-11.76
-12.95
-13.42
-13.04
-11.82
-9.91
-7.61
-5.17
-2.81
-0.60
1.47
3.38
5.11
6.54
7.56
8.11
8.21
7.99
7.56
7.07
6.61
6.21
5.90
5.64
5.36
4.96
4.35
3.49
2.43
1.30
0.28
-0.53
-1.15
-1.73
-2.46
-3.52
-4.92
-6.57
-8.26
-9.77
-10.95
-11.73
-12.10
-12.07
-11.64
-10.78
-9.46
-7.68
-5.52
-3.16
-0.85
1.17
2.74
3.86
4.64
5.23
5.72
6.11
6.32
6.27
5.95
5.48
5.00
4.64
4.41
4.25
4.01
3.58
2.93
2.12
1.24
0.38
-0.45
-1.32
-2.31
-3.46
-4.71
-5.99
-7.18
-8.27
-9.30
-10.30
-11.25
-12.01
-12.34
-12.06
-11.07
-9.45
-7.39
-5.14
-2.92
-0.86
0.99
2.63
4.07
5.32
6.33
7.01
7.31
7.21
6.83
6.32
5.81
5.38
5.00
4.59
4.11
3.58
3.05
2.54
2.01
1.35
0.49
-0.55
-1.64
-2.63
-3.46
-4.20
-5.04
-6.17
-7.63
-9.29
-10.93
-12.31
-13.33
-13.98
-14.29
-14.25
-13.76
-12.68
-10.95
-8.64
-6.00
-3.31
-0.81
1.37
3.20
4.71
5.94
6.87
7.48
7.79
7.86
7.77
7.63
7.51
7.42
7.34
7.21
6.97
6.63
6.18
5.66
5.05
4.33
3.46
2.41
1.17
-0.16
-1.45
-2.60
-3.57
-4.42
-5.31
-6.39
-7.75
-9.27
-10.75
-11.91
-12.52
-12.47
-11.78
-10.55
-8.92
-7.02
-4.99
-2.95
-1.05
0.54
1.71
2.46
2.85
3.03
3.16
3.26
3.30
3.18
2.86
2.41
1.98
1.70
1.62
1.64
1.56
1.24
0.63
-0.18
-1.05
-1.92
-2.76
-3.66
-4.68
-5.84
-7.13
-8.49
-9.90
-11.37
-12.87
-14.38
-15.76
-16.86
-17.46
-17.37
-16.42
-14.62
-12.06
-8.99
-5.71
-2.46
0.60
3.38
5.83
7.91
9.56
10.74
11.43
11.71
11.68
11.47
11.14
10.73
10.29
9.87
9.52
9.25
8.98
8.61
8.00
7.09
5.93
4.64
3.34
2.13
1.00
-0.13
-1.33
-2.69
-4.26
-6.03
-7.96
-9.95
-11.77
-13.14
-13.77
-13.41
-12.01
-9.67
-6.68
-3.43
-0.25
2.63
5.12
7.25
9.07
10.63
11.91
12.84
13.38
13.54
13.41
13.10
12.71
12.29
11.81
11.20
10.42
9.54
8.67
7.96
7.47
7.11
6.69
6.02
4.98
3.63
2.11
0.63
-0.73
-1.99
-3.28
-4.74
-6.42
-8.24
-10.06
-11.70
-13.03
-13.90
-14.22
-13.94
-13.01
-11.48
-9.46
-7.13
-4.64
-2.15
0.25
2.53
4.62
6.46
7.96
9.07
9.82
10.28
10.54
10.67
10.69
10.60
10.38
10.03
9.61
9.12
8.56
7.90
7.13
6.29
5.49
4.79
4.21
3.67
3.04
2.21
1.15
-0.08
-1.39
-2.75
-4.13
-5.56
-7.00
-8.38
-9.61
-10.63
-11.45
-12.13
-12.63
-12.83
-12.55
-11.58
-9.89
-7.61
-5.03
-2.46
-0.13
1.85
3.50
4.83
5.89
6.66
7.16
7.46
7.64
7.80
7.94
7.98
7.80
7.36
6.71
6.01
5.43
5.09
4.95
4.85
4.58
4.00
3.10
2.03
1.00
0.19
-0.38
-0.84
-1.35
-2.08
-3.07
-4.26
-5.52
-6.78
-7.98
-9.14
-10.21
-11.06
-11.49
-11.28
-10.39
-8.94
-7.22
-5.50
-3.91
-2.41
-0.85
0.86
2.62
4.24
5.49
6.28
6.70
6.93
7.13
7.29
7.28
6.95
6.28
5.43
4.68
4.25
4.17
4.33
4.46
4.37
3.97
3.33
2.56
1.76
0.97
0.19
-0.63
-1.48
-2.34
-3.24
-4.18
-5.22
-6.39
-7.66
-8.93
-10.03
-10.77
-11.04
-10.74
-9.88
-8.50
-6.70
-4.64
-2.52
-0.57
1.04
2.22
3.01
3.51
3.90
4.27
4.65
5.00
5.25
5.40
5.47
5.49
5.50
5.45
5.30
5.03
4.66
4.22
3.77
3.34
2.93
2.49
1.99
1.43
0.81
0.17
-0.47
-1.15
-1.95
-2.97
-4.27
-5.86
-7.63
-9.36
-10.81
-11.74
-12.02
-11.64
-10.72
-9.42
-7.91
-6.28
-4.63
-3.00
-1.47
-0.12
0.96
1.74
2.27
2.63
2.87
3.05
3.14
3.10
2.92
2.62
2.25
1.83
1.34
0.74
-0.03
-0.95
-1.94
-2.93
-3.84
-4.65
-5.38
-6.09
-6.86
-7.74
-8.79
-10.02
-11.43
-13.01
-14.72
-16.56
-18.48
-20.46
-22.45
-24.33
-25.92
-26.99
-27.37
-26.95
-25.73
-23.81
-21.33
-18.44
-15.32
-12.13
-9.00
-6.09
-3.51
-1.30
0.51
1.93
2.97
3.69
4.18
4.55
4.90
5.30
5.73
6.09
6.24
6.10
5.69
5.04
4.27
3.42
2.52
1.58
0.65
-0.22
-1.00
-1.70
-2.45
-3.40
-4.67
-6.27
-8.11
-9.92
-11.36
-12.07
-11.74
-10.23
-7.60
-4.11
-0.15
3.90
7.72
11.14
14.10
16.54
18.45
19.79
20.57
20.88
20.83
20.56
20.14
19.62
19.03
18.43
17.86
17.33
16.80
16.17
15.30
14.12
12.64
10.94
9.18
7.46
5.84
4.30
2.78
1.16
-0.65
-2.77
-5.24
-8.04
-11.01
-13.85
-16.11
-17.34
-17.20
-15.60
-12.77
-9.13
-5.21
-1.44
1.93
4.80
7.20
9.15
10.62
11.60
12.12
12.28
12.23
12.13
12.06
12.03
11.99
11.83
11.49
10.94
10.22
9.40
8.55
7.70
6.81
5.79
4.57
3.15
1.60
0.03
-1.48
-2.94
-4.47
-6.25
-8.41
-10.98
-13.83
-16.68
-19.16
-20.85
-21.41
-20.63
-18.53
-15.28
-11.25
-6.82
-2.36
1.85
5.59
8.73
11.21
13.03
14.23
14.96
15.32
15.44
15.37
15.10
14.59
13.76
12.58
11.05
9.23
7.23
5.13
2.96
0.68
-1.81
-4.57
-7.61
-10.81
-14.06
-17.23
-20.31
-23.35
-26.45
-29.72
-33.25
-37.04
-40.94
-44.59
-47.43
-48.77
-48.05
-44.98
-39.72
-32.76
-24.75
-16.30
-7.92
0.05
7.34
13.73
19.05
23.28
26.56
29.14
31.31
33.24
35.02
36.59
37.84
38.64
38.81
38.21
36.69
34.23
30.96
27.19
23.36
19.92
17.21
15.36
14.26
13.68
13.25
12.64
11.60
9.94
7.61
4.65
1.24
-2.31
-5.58
-8.07
-9.38
-9.27
-7.74
-5.06
-1.64
2.04
5.59
8.80
11.58
13.98
16.09
17.90
19.34
20.26
20.56
20.22
19.38
18.32
17.30
16.52
16.02
15.69
15.38
14.98
14.48
13.97
13.54
13.28
13.21
13.33
13.54
13.73
13.76
13.46
12.73
11.53
9.93
8.08
6.11
4.18
2.40
0.92
-0.09
-0.44
0.01
1.28
3.22
5.61
8.20
10.87
13.52
16.12
18.53
20.59
22.17
23.22
23.84
24.18
24.37
24.40
24.08
23.22
21.68
19.48
16.80
13.85
10.81
7.70
4.44
0.93
-2.93
-7.07
-11.31
-15.38
-18.99
-21.91
-24.10
-25.67
-26.85
-27.89
-28.95
-30.05
-31.08
-31.92
-32.41
-32.47
-32.05
-31.13
-29.71
-27.84
-25.66
-23.37
-21.16
-19.16
-17.35
-15.61
-13.77
-11.74
-9.59
-7.46
-5.52
-3.89
-2.62
-1.69
-1.08
-0.80
-0.85
-1.23
-1.89
-2.70
-3.56
-4.35
-5.03
-5.63
-6.23
-6.95
-7.91
-9.22
-10.94
-13.10
-15.64
-18.49
-21.52
-24.60
-27.64
-30.48
-32.97
-34.96
-36.30
-36.92
-36.83
-36.05
-34.63
-32.49
-29.56
-25.77
-21.19
-16.06
-10.74
-5.60
-0.89
3.31
7.03
10.35
13.31
15.90
18.05
19.68
20.77
21.33
21.46
21.23
20.75
20.04
19.12
18.03
16.81
15.57
14.36
13.19
11.96
10.52
8.75
6.63
4.26
1.78
-0.68
-3.05
-5.28
-7.27
-8.86
-9.87
-10.12
-9.57
-8.32
-6.59
-4.64
-2.67
-0.82
0.82
2.20
3.28
4.01
4.38
4.43
4.25
3.95
3.62
3.32
3.10
2.98
3.00
3.27
3.87
4.88
6.31
8.11
10.18
12.41
14.75
17.19
19.78
22.52
25.35
28.08
30.43
32.09
32.75
32.26
30.58
27.86
24.34
20.31
16.07
11.85
7.82
4.11
0.76
-2.22
-4.88
-7.29
-9.54
-11.70
-13.82
-15.91
-18.01
-20.10
-22.14
-24.05
-25.73
-27.14
-28.27
-29.17
-29.89
-30.46
-30.84
-31.02
-31.07
-31.16
-31.51
-32.32
-33.64
-35.30
-37.01
-38.46
-39.42
-39.82
-39.67
-39.05
-37.99
-36.45
-34.34
-31.57
-28.04
-23.70
-18.55
-12.65
-6.11
0.89
8.12
15.36
22.39
29.09
35.41
41.33
46.85
51.88
56.24
59.68
61.94
62.89
62.58
61.28
59.35
57.17
54.98
52.86
50.80
48.74
46.68
44.62
42.61
40.68
38.79
36.92
35.05
33.27
31.65
30.32
29.33
28.59
27.93
27.00
25.47
22.98
19.33
14.46
8.51
1.77
-5.37
-12.41
-18.91
-24.47
-28.86
-32.04
-34.18
-35.66
-36.95
-38.41
-40.22
-42.27
-44.26
-45.77
-46.47
-46.21
-45.05
-43.24
-41.15
-39.18
-37.61
-36.63
-36.25
-36.29
-36.46
-36.42
-35.87
-34.62
-32.70
-30.28
-27.68
-25.22
-23.15
-21.59
-20.50
-19.68
-18.95
-18.13
-17.19
-16.18
-15.28
-14.66
-14.46
-14.77
-15.53
-16.54
-17.51
-18.03
-17.75
-16.38
-13.83
-10.18
-5.68
-0.65
4.57
9.69
14.47
18.73
22.36
25.28
27.44
28.85
29.52
29.53
28.99
28.03
26.80
25.45
24.08
22.75
21.47
20.21
18.93
17.57
16.08
14.39
12.45
10.30
8.00
5.68
3.44
1.29
-0.81
-2.98
-5.37
-8.04
-10.98
-14.08
-17.11
-19.76
-21.69
-22.58
-22.25
-20.69
-18.09
-14.75
-11.04
-7.20
-3.40
0.31
3.92
7.44
10.86
14.12
17.13
19.79
21.97
23.52
24.37
24.53
24.10
23.26
22.25
21.24
20.29
19.31
18.10
16.42
14.18
11.48
8.58
5.89
3.67
2.03
0.82
-0.23
-1.38
-2.74
-4.30
-5.98
-7.65
-9.21
-10.53
-11.41
-11.67
-11.17
-9.92
-8.06
-5.85
-3.50
-1.13
1.25
3.69
6.18
8.62
10.85
12.67
13.94
14.56
14.49
13.75
12.44
10.77
9.03
7.50
6.40
5.75
5.40
5.09
4.56
3.61
2.21
0.46
-1.50
-3.46
-5.25
-6.76
-7.97
-8.93
-9.81
-10.79
-12.02
-13.50
-15.09
-16.49
-17.33
-17.33
-16.31
-14.29
-11.47
-8.12
-4.58
-1.19
1.76
4.07
5.68
6.70
7.39
7.99
8.66
9.40
10.05
10.44
10.47
10.18
9.69
9.12
8.45
7.60
6.50
5.16
3.70
2.32
1.15
0.21
-0.60
-1.42
-2.35
-3.37
-4.43
-5.46
-6.51
-7.69
-9.14
-10.86
-12.64
-14.08
-14.71
-14.16
-12.30
-9.35
-5.72
-1.91
1.71
4.93
7.78
10.33
12.65
14.72
16.41
17.58
18.19
18.31
18.11
17.73
17.23
16.56
15.62
14.35
12.81
11.13
9.48
7.92
6.35
4.64
2.70
0.55
-1.63
-3.55
-4.99
-5.82
-6.06
-5.95
-5.74
-5.68
-5.98
-6.74
-7.84
-9.00
-9.79
-9.85
-9.01
-7.21
-4.62
-1.55
1.58
4.35
6.39
7.56
7.82
7.26
6.34
5.64
5.62
6.39
7.75
9.23
10.60
11.77
12.78
14.18
16.50
20.00
24.54
29.67
34.79
39.62
43.97
45.70
43.33
36.84
27.92
18.92
12.38
8.03
5.16
3.06
1.12
-0.75
-2.33
-3.36
-3.78
-3.67
-3.29
-2.62
-1.68
-0.58
0.69
2.09
3.35
4.08
3.95
2.80
0.98
-0.96
-2.50
-3.22
-2.99
-2.08
-1.01
-0.31
-0.32
-0.95
-1.92
-2.97
-3.93
-4.79
-5.73
-6.94
-8.53
-10.45
-12.46
-14.33
-15.91
-17.11
-17.93
-18.41
-18.61
-18.63
-18.58
-18.49
-18.36
-18.13
-17.73
-17.15
-16.44
-15.65
-14.83
-13.99
-13.12
-12.20
-11.29
-10.45
-9.74
-9.17
-8.67
-8.17
-7.57
-6.85
-6.04
-5.18
-4.31
-3.45
-2.61
-1.81
-1.06
-0.39
0.20
0.71
1.16
1.60
2.07
2.56
3.02
3.35
3.45
3.28
2.88
2.39
1.92
1.58
1.37
1.22
1.02
0.66
0.05
-0.86
-2.12
-3.73
-5.61
-7.61
-9.53
-11.18
-12.42
-13.18
-13.46
-13.35
-12.99
-12.53
-12.07
-11.67
-11.29
-10.84
-10.24
-9.47
-8.62
-7.82
-7.22
-6.87
-6.68
-6.53
-6.28
-5.93
-5.59
-5.40
-5.46
-5.75
-6.13
-6.46
-6.63
-6.64
-6.56
-6.47
-6.36
-6.19
-5.90
-5.45
-4.91
-4.39
-3.98
-3.70
-3.51
-3.29
-2.97
-2.54
-2.07
-1.67
-1.46
-1.48
-1.67
-1.92
-2.09
-2.12
-2.03
-1.90
-1.83
-1.88
-2.01
-2.21
-2.42
-2.63
-2.87
-3.14
-3.45
-3.74
-3.96
-4.14
-4.40
-4.86
-5.62
-6.62
-7.60
-8.24
-8.26
-7.54
-6.23
-4.66
-3.17
-1.98
-1.13
-0.47
0.16
0.87
1.62
2.30
2.83
3.22
3.57
3.99
4.53
5.08
5.49
5.61
5.40
4.95
4.38
3.81
3.29
2.81
2.34
1.90
1.49
1.12
0.75
0.29
-0.40
-1.43
-2.84
-4.53
-6.32
-7.93
-9.07
-9.51
-9.17
-8.10
-6.54
-4.75
-2.97
-1.35
0.07
1.32
2.43
3.40
4.19
4.80
5.19
5.39
5.41
5.28
5.04
4.77
4.53
4.41
4.41
4.49
4.52
4.40
4.10
3.64
3.14
2.65
2.18
1.64
0.92
-0.03
-1.19
-2.47
-3.76
-5.03
-6.27
-7.48
-8.60
-9.43
-9.73
-9.31
-8.17
-6.51
-4.63
-2.82
-1.25
0.11
1.39
2.71
4.08
5.43
6.60
7.48
8.02
8.26
8.26
8.09
7.77
7.35
6.89
6.50
6.27
6.23
6.29
6.29
6.03
5.40
4.43
3.30
2.21
1.30
0.58
-0.10
-0.91
-1.97
-3.30
-4.82
-6.42
-8.05
-9.68
-11.25
-12.61
-13.55
-13.84
-13.35
-12.14
-10.37
-8.28
-6.05
-3.78
-1.53
0.65
2.65
4.35
5.63
6.46
6.87
6.95
6.83
6.65
6.51
6.46
6.50
6.60
6.69
6.75
6.73
6.60
6.31
5.79
5.01
3.99
2.85
1.74
0.80
0.05
-0.58
-1.24
-2.07
-3.17
-4.58
-6.23
-8.00
-9.66
-10.94
-11.59
-11.43
-10.50
-8.95
-7.05
-5.01
-2.92
-0.78
1.45
3.76
6.00
7.98
9.49
10.45
10.87
10.89
10.67
10.37
10.08
9.84
9.64
9.43
9.21
8.95
8.68
8.39
8.09
7.70
7.14
6.32
5.22
3.86
2.34
0.80
-0.64
-1.92
-3.08
-4.24
-5.59
-7.27
-9.30
-11.56
-13.74
-15.46
-16.41
-16.37
-15.36
-13.54
-11.16
-8.49
-5.73
-3.05
-0.59
1.51
3.11
4.11
4.54
4.52
4.25
3.95
3.80
3.86
4.09
4.36
4.53
4.48
4.19
3.74
3.21
2.69
2.21
1.72
1.15
0.43
-0.47
-1.54
-2.77
-4.15
-5.69
-7.39
-9.20
-11.03
-12.81
-14.53
-16.24
-18.06
-20.05
-22.14
-24.17
-25.87
-26.90
-27.02
-26.03
-23.89
-20.69
-16.68
-12.19
-7.63
-3.37
0.33
3.34
5.67
7.42
8.69
9.61
10.27
10.74
11.11
11.45
11.78
12.13
12.46
12.74
12.97
13.16
13.37
13.61
13.86
14.00
13.92
13.55
12.89
12.04
11.11
10.18
9.21
8.10
6.70
4.89
2.68
0.11
-2.61
-5.25
-7.51
-9.04
-9.59
-9.04
-7.42
-4.95
-1.93
1.37
4.74
8.02
11.07
13.73
15.83
17.28
18.09
18.40
18.39
18.25
18.08
17.88
17.63
17.25
16.71
16.02
15.21
14.34
13.46
12.62
11.79
10.95
9.99
8.83
7.38
5.67
3.75
1.75
-0.21
-2.10
-3.92
-5.76
-7.70
-9.79
-12.01
-14.28
-16.47
-18.40
-19.86
-20.64
-20.56
-19.49
-17.44
-14.57
-11.16
-7.55
-4.02
-0.78
2.07
4.48
6.42
7.85
8.74
9.09
9.00
8.64
8.19
7.79
7.48
7.22
6.96
6.66
6.40
6.27
6.32
6.46
6.53
6.32
5.73
4.79
3.65
2.50
1.44
0.46
-0.53
-1.66
-3.00
-4.56
-6.27
-8.03
-9.70
-11.07
-11.93
-12.01
-11.13
-9.26
-6.54
-3.27
0.19
3.57
6.65
9.34
11.56
13.24
14.32
14.83
14.88
14.64
14.28
13.92
13.57
13.21
12.81
12.35
11.79
11.10
10.21
9.06
7.65
6.08
4.45
2.87
1.36
-0.12
-1.66
-3.30
-5.02
-6.74
-8.37
-9.91
-11.41
-12.99
-14.70
-16.53
-18.39
-20.06
-21.29
-21.87
-21.62
-20.46
-18.42
-15.61
-12.25
-8.63
-5.07
-1.84
0.92
3.13
4.85
6.16
7.18
7.95
8.50
8.85
9.04
9.12
9.12
9.07
8.94
8.69
8.28
7.74
7.14
6.56
6.04
5.53
4.94
4.21
3.32
2.36
1.41
0.52
-0.37
-1.33
-2.48
-3.89
-5.55
-7.40
-9.33
-11.18
-12.81
-14.04
-14.70
-14.63
-13.74
-12.04
-9.66
-6.82
-3.78
-0.78
2.04
4.57
6.81
8.71
10.25
11.33
11.90
11.98
11.67
11.14
10.57
10.05
9.62
9.23
8.82
8.36
7.83
7.27
6.65
5.95
5.12
4.15
3.03
1.81
0.53
-0.75
-1.99
-3.16
-4.24
-5.29
-6.46
-7.88
-9.69
-11.81
-13.97
-15.76
-16.75
-16.66
-15.44
-13.27
-10.50
-7.43
-4.33
-1.37
1.35
3.75
5.77
7.37
8.56
9.40
10.00
10.47
10.85
11.15
11.29
11.19
10.80
10.16
9.37
8.56
7.85
7.29
6.86
6.49
6.10
5.64
5.08
4.43
3.65
2.72
1.57
0.17
-1.48
-3.32
-5.24
-7.12
-8.83
-10.30
-11.44
-12.16
-12.33
-11.84
-10.64
-8.78
-6.43
-3.80
-1.08
1.59
4.13
6.50
8.65
10.55
12.13
13.41
14.41
15.15
15.65
15.88
15.86
15.65
15.40
15.25
15.27
15.38
15.42
15.18
14.53
13.50
12.21
10.87
9.61
8.48
7.39
6.22
4.85
3.21
1.28
-0.93
-3.39
-6.04
-8.76
-11.31
-13.38
-14.65
-14.91
-14.16
-12.62
-10.67
-8.67
-6.86
-5.30
-3.95
-2.73
-1.64
-0.72
-0.05
0.35
0.51
0.51
0.45
0.36
0.24
0.04
-0.28
-0.69
-1.12
-1.45
-1.64
-1.70
-1.78
-2.05
-2.61
-3.49
-4.56
-5.63
-6.56
-7.29
-7.85
-8.36
-8.94
-9.67
-10.65
-11.88
-13.30
-14.67
-15.69
-16.06
-15.58
-14.29
-12.39
-10.15
-7.75
-5.25
-2.65
0.01
2.54
4.68
6.22
7.12
7.52
7.65
7.70
7.74
7.70
7.50
7.08
6.47
5.73
4.95
4.20
3.51
2.88
2.27
1.59
0.78
-0.19
-1.28
-2.38
-3.40
-4.32
-5.23
-6.25
-7.48
-8.92
-10.50
-12.10
-13.59
-14.87
-15.81
-16.27
-16.11
-15.23
-13.64
-11.45
-8.88
-6.20
-3.64
-1.39
0.45
1.86
2.90
3.60
4.04
4.24
4.19
3.89
3.38
2.73
2.06
1.46
0.99
0.66
0.44
0.22
-0.08
-0.58
-1.33
-2.35
-3.55
-4.78
-5.90
-6.82
-7.57
-8.27
-9.14
-10.35
-12.02
-14.16
-16.69
-19.40
-22.02
-24.21
-25.64
-26.06
-25.36
-23.57
-20.87
-17.53
-13.81
-9.95
-6.19
-2.66
0.49
3.21
5.47
7.32
8.80
9.96
10.83
11.40
11.69
11.75
11.69
11.60
11.54
11.49
11.36
11.06
10.53
9.76
8.80
7.67
6.39
4.96
3.41
1.80
0.21
-1.33
-2.88
-4.53
-6.43
-8.64
-11.11
-13.66
-16.03
-17.90
-18.94
-18.87
-17.51
-14.83
-11.04
-6.52
-1.73
2.87
7.00
10.47
13.21
15.23
16.54
17.18
17.27
16.95
16.43
15.88
15.44
15.21
15.20
15.38
15.63
15.77
15.62
15.07
14.11
12.87
11.55
10.29
9.16
8.11
7.01
5.75
4.27
2.61
0.87
-0.84
-2.46
-4.03
-5.69
-7.56
-9.76
-12.23
-14.79
-17.11
-18.84
-19.65
-19.31
-17.80
-15.23
-11.84
-7.95
-3.89
0.09
3.80
7.12
9.99
12.34
14.07
15.14
15.57
15.49
15.13
14.71
14.40
14.25
14.21
14.14
13.88
13.37
12.61
11.71
10.77
9.90
9.12
8.38
7.60
6.68
5.57
4.31
2.98
1.67
0.45
-0.64
-1.66
-2.71
-3.95
-5.56
-7.61
-10.08
-12.78
-15.35
-17.36
-18.45
-18.41
-17.26
-15.19
-12.49
-9.43
-6.25
-3.06
-0.01
2.78
5.16
7.03
8.34
9.15
9.55
9.66
9.54
9.25
8.80
8.23
7.61
7.03
6.52
6.12
5.78
5.41
4.94
4.27
3.36
2.21
0.84
-0.63
-2.12
-3.50
-4.73
-5.80
-6.75
-7.71
-8.79
-10.11
-11.75
-13.68
-15.78
-17.84
-19.52
-20.52
-20.54
-19.46
-17.28
-14.22
-10.57
-6.66
-2.78
0.83
4.04
6.80
9.06
10.80
11.98
12.65
12.86
12.75
12.43
12.00
11.47
10.83
10.10
9.32
8.63
8.14
7.93
7.93
7.94
7.71
7.01
5.76
4.04
2.07
0.10
-1.71
-3.30
-4.76
-6.25
-7.89
-9.75
-11.83
-14.03
-16.19
-18.08
-19.40
-19.88
-19.25
-17.47
-14.66
-11.12
-7.22
-3.28
0.45
3.82
6.73
9.11
10.89
12.10
12.80
13.12
13.13
12.89
12.38
11.59
10.57
9.46
8.43
7.65
7.17
6.92
6.74
6.43
5.81
4.83
3.52
2.01
0.45
-1.03
-2.37
-3.60
-4.82
-6.15
-7.74
-9.68
-11.99
-14.57
-17.21
-19.55
-21.15
-21.61
-20.69
-18.39
-14.97
-10.82
-6.37
-1.99
2.08
5.67
8.74
11.20
13.03
14.23
14.87
15.09
15.05
14.90
14.69
14.44
14.09
13.60
12.93
12.11
11.21
10.30
9.42
8.58
7.72
6.74
5.53
4.03
2.27
0.35
-1.55
-3.29
-4.83
-6.27
-7.82
-9.70
-12.00
-14.63
-17.28
-19.54
-21.03
-21.49
-20.85
-19.19
-16.68
-13.53
-10.00
-6.30
-2.66
0.75
3.79
6.38
8.47
10.04
11.09
11.64
11.79
11.68
11.43
11.13
10.85
10.59
10.33
10.05
9.73
9.34
8.82
8.12
7.21
6.08
4.78
3.38
1.98
0.66
-0.60
-1.86
-3.28
-4.99
-7.09
-9.56
-12.25
-14.89
-17.13
-18.61
-19.00
-18.18
-16.18
-13.27
-9.82
-6.21
-2.70
0.55
3.49
6.13
8.41
10.30
11.74
12.75
13.34
13.54
13.33
12.74
11.83
10.77
9.76
8.97
8.42
8.01
7.56
6.91
6.01
4.91
3.67
2.34
0.90
-0.66
-2.31
-3.95
-5.51
-6.97
-8.44
-10.12
-12.16
-14.53
-16.92
-18.87
-19.90
-19.70
-18.25
-15.75
-12.56
-9.01
-5.36
-1.74
1.74
4.97
7.81
10.10
11.72
12.66
12.97
12.83
12.38
11.83
11.28
10.82
10.42
10.03
9.59
9.06
8.44
7.69
6.79
5.67
4.30
2.73
1.06
-0.56
-2.04
-3.36
-4.62
-5.99
-7.64
-9.67
-12.09
-14.78
-17.47
-19.75
-21.12
-21.16
-19.67
-16.77
-12.87
-8.55
-4.29
-0.42
2.95
5.83
8.25
10.20
11.66
12.64
13.18
13.41
13.42
13.25
12.91
12.37
11.65
10.79
9.87
9.00
8.24
7.63
7.15
6.67
6.06
5.18
3.94
2.39
0.66
-1.08
-2.71
-4.19
-5.61
-7.16
-9.01
-11.23
-13.76
-16.35
-18.62
-20.11
-20.44
-19.40
-17.08
-13.74
-9.86
-5.87
-2.11
1.25
4.21
6.82
9.13
11.11
12.65
13.66
14.14
14.16
13.85
13.37
12.83
12.29
11.75
11.16
10.48
9.72
8.91
8.11
7.38
6.70
5.98
5.08
3.89
2.41
0.74
-0.94
-2.47
-3.84
-5.16
-6.69
-8.64
-11.06
-13.86
-16.76
-19.38
-21.36
-22.39
-22.24
-20.85
-18.29
-14.82
-10.79
-6.60
-2.61
0.98
4.06
6.68
8.90
10.76
12.25
13.30
13.85
13.89
13.54
12.94
12.30
11.72
11.23
10.79
10.30
9.70
8.99
8.17
7.28
6.32
5.28
4.14
2.90
1.57
0.20
-1.21
-2.63
-4.14
-5.80
-7.70
-9.91
-12.40
-15.01
-17.42
-19.24
-20.06
-19.63
-17.89
-15.02
-11.35
-7.28
-3.17
0.71
4.14
7.03
9.33
11.03
12.18
12.88
13.22
13.27
13.06
12.60
11.91
11.07
10.17
9.36
8.73
8.32
8.06
7.83
7.49
6.92
6.08
4.97
3.64
2.11
0.44
-1.32
-3.10
-4.84
-6.52
-8.25
-10.12
-12.23
-14.50
-16.67
-18.31
-18.97
-18.37
-16.48
-13.54
-9.94
-6.09
-2.35
1.09
4.13
6.73
8.86
10.49
11.56
12.10
12.18
11.94
11.58
11.24
10.99
10.78
10.51
10.07
9.45
8.68
7.83
6.92
5.93
4.76
3.39
1.86
0.27
-1.21
-2.51
-3.61
-4.59
-5.57
-6.72
-8.22
-10.19
-12.64
-15.41
-18.12
-20.28
-21.43
-21.33
-19.97
-17.59
-14.50
-11.02
-7.37
-3.74
-0.29
2.82
5.40
7.38
8.73
9.54
9.96
10.11
10.12
10.06
9.96
9.82
9.62
9.32
8.94
8.50
8.07
7.68
7.30
6.86
6.24
5.36
4.21
2.82
1.28
-0.30
-1.84
-3.29
-4.65
-6.00
-7.47
-9.20
-11.26
-13.56
-15.80
-17.58
-18.46
-18.20
-16.76
-14.31
-11.19
-7.75
-4.29
-1.02
1.93
4.52
6.72
8.50
9.87
10.83
11.42
11.74
11.89
11.93
11.88
11.66
11.19
10.41
9.35
8.17
7.04
6.11
5.42
4.86
4.31
3.62
2.75
1.71
0.56
-0.63
-1.86
-3.19
-4.70
-6.49
-8.59
-10.94
-13.35
-15.57
-17.23
-18.04
-17.78
-16.41
-14.08
-11.08
-7.74
-4.36
-1.17
1.73
4.28
6.44
8.17
9.41
10.13
10.37
10.25
9.96
9.71
9.65
9.84
10.24
10.71
11.11
11.31
11.22
10.86
10.31
9.67
9.05
8.46
7.91
7.34
6.73
6.07
5.33
4.48
3.48
2.26
0.80
-0.82
-2.39
-3.68
-4.44
-4.50
-3.84
-2.51
-0.66
1.52
3.82
6.02
7.89
9.28
10.13
10.49
10.50
10.34
10.16
9.98
9.76
9.39
8.79
8.00
7.08
6.17
5.36
4.66
3.99
3.22
2.24
1.01
-0.40
-1.84
-3.15
-4.25
-5.14
-5.91
-6.72
-7.68
-8.90
-10.38
-12.10
-13.96
-15.79
-17.31
-18.19
-18.13
-16.98
-14.90
-12.24
-9.45
-6.91
-4.78
-3.01
-1.46
-0.02
1.33
2.51
3.45
4.09
4.47
4.63
4.59
4.35
3.93
3.40
2.81
2.22
1.57
0.80
-0.16
-1.28
-2.46
-3.59
-4.59
-5.51
-6.47
-7.58
-8.89
-10.34
-11.82
-13.27
-14.67
-16.08
-17.53
-18.91
-19.97
-20.42
-20.04
-18.76
-16.74
-14.27
-11.67
-9.19
-6.94
-4.92
-3.08
-1.39
0.12
1.35
2.25
2.79
3.02
3.07
3.06
3.07
3.11
3.13
3.07
2.91
2.64
2.31
1.93
1.49
0.93
0.23
-0.59
-1.45
-2.29
-3.06
-3.80
-4.61
-5.57
-6.70
-7.97
-9.27
-10.48
-11.45
-12.02
-12.05
-11.45
-10.22
-8.46
-6.35
-4.03
-1.57
1.00
3.65
6.25
8.61
10.52
11.88
12.70
13.13
13.32
13.41
13.40
13.27
12.99
12.60
12.13
11.62
11.09
10.47
9.73
8.80
7.66
6.33
4.87
3.37
1.92
0.55
-0.78
-2.22
-3.92
-5.98
-8.35
-10.84
-13.12
-14.86
-15.82
-15.87
-15.01
-13.40
-11.23
-8.74
-6.18
-3.74
-1.55
0.36
2.02
3.53
4.97
6.36
7.67
8.79
9.60
10.04
10.07
9.77
9.24
8.58
7.82
6.93
5.81
4.36
2.58
0.54
-1.59
-3.59
-5.27
-6.56
-7.53
-8.31
-9.10
-10.06
-11.33
-12.95
-14.90
-17.05
-19.20
-21.03
-22.20
-22.45
-21.64
-19.80
-17.13
-13.91
-10.42
-6.86
-3.33
0.07
3.23
5.98
8.16
9.63
10.42
10.67
10.61
10.45
10.33
10.26
10.19
10.06
9.85
9.56
9.22
8.81
8.25
7.44
6.34
4.98
3.46
1.93
0.53
-0.72
-1.91
-3.24
-4.97
-7.22
-9.92
-12.74
-15.13
-16.51
-16.45
-14.85
-11.91
-8.14
-4.09
-0.24
3.13
5.95
8.24
10.06
11.44
12.40
12.95
13.14
13.09
12.93
12.74
12.52
12.20
11.67
10.90
9.88
8.67
7.35
6.00
4.67
3.38
2.14
0.93
-0.31
-1.67
-3.23
-5.10
-7.30
-9.79
-12.43
-14.97
-17.09
-18.42
-18.65
-17.62
-15.41
-12.28
-8.62
-4.80
-1.10
2.34
5.46
8.23
10.59
12.44
13.72
14.47
14.75
14.68
14.36
13.86
13.20
12.41
11.49
10.49
9.45
8.41
7.41
6.43
5.46
4.42
3.25
1.86
0.24
-1.62
-3.67
-5.89
-8.27
-10.78
-13.31
-15.67
-17.57
-18.70
-18.82
-17.82
-15.73
-12.74
-9.08
-5.08
-1.04
2.76
6.11
8.89
11.08
12.73
13.89
14.59
14.84
14.67
14.15
13.44
12.67
11.97
11.36
10.74
10.02
9.11
8.00
6.74
5.37
3.91
2.35
0.65
-1.18
-3.12
-5.10
-7.11
-9.18
-11.38
-13.75
-16.22
-18.55
-20.39
-21.32
-21.00
-19.31
-16.36
-12.48
-8.10
-3.65
0.55
4.30
7.49
10.06
11.97
13.23
13.85
13.93
13.58
12.97
12.27
11.61
11.05
10.62
10.26
9.89
9.43
8.81
7.99
6.95
5.68
4.19
2.51
0.71
-1.09
-2.79
-4.36
-5.88
-7.52
-9.48
-11.85
-14.49
-17.07
-19.10
-20.05
-19.56
-17.50
-14.05
-9.65
-4.87
-0.24
3.86
7.26
9.95
12.04
13.65
14.90
15.82
16.43
16.71
16.65
16.28
15.63
14.79
13.84
12.84
11.84
10.84
9.83
8.82
7.79
6.74
5.62
4.40
3.04
1.56
-0.02
-1.68
-3.41
-5.29
-7.41
-9.85
-12.59
-15.47
-18.19
-20.34
-21.49
-21.35
-19.84
-17.15
-13.66
-9.79
-5.95
-2.40
0.69
3.26
5.27
6.77
7.81
8.47
8.79
8.78
8.43
7.77
6.92
6.08
5.42
4.98
4.66
4.28
3.68
2.88
1.99
1.16
0.43
-0.32
-1.32
-2.74
-4.62
-6.80
-9.11
-11.44
-13.80
-16.28
-18.89
-21.39
-23.35
-24.23
-23.60
-21.34
-17.68
-13.10
-8.16
-3.33
1.09
4.97
8.28
10.99
13.10
14.59
15.49
15.88
15.90
15.67
15.32
14.88
14.35
13.70
12.93
12.05
11.10
10.10
9.02
7.77
6.27
4.50
2.54
0.56
-1.30
-3.00
-4.61
-6.31
-8.31
-10.69
-13.39
-16.19
-18.73
-20.58
-21.37
-20.86
-18.97
-15.89
-11.93
-7.53
-3.11
1.00
4.62
7.66
10.11
11.97
13.24
13.94
14.12
13.84
13.23
12.44
11.59
10.75
9.96
9.17
8.36
7.48
6.54
5.55
4.52
3.42
2.19
0.76
-0.86
-2.62
-4.39
-6.08
-7.72
-9.46
-11.47
-13.89
-16.62
-19.31
-21.45
-22.53
-22.16
-20.22
-16.88
-12.52
-7.62
-2.60
2.18
6.51
10.26
13.35
15.69
17.21
17.91
17.94
17.53
16.97
16.46
16.01
15.52
14.84
13.88
12.74
11.58
10.56
9.68
8.78
7.63
6.07
4.13
1.96
-0.14
-1.99
-3.56
-4.99
-6.54
-8.46
-10.84
-13.58
-16.41
-18.93
-20.70
-21.38
-20.73
-18.68
-15.40
-11.21
-6.54
-1.88
2.40
6.03
8.93
11.13
12.75
13.88
14.62
14.97
14.95
14.55
13.82
12.83
11.72
10.59
9.54
8.60
7.73
6.83
5.81
4.61
3.23
1.71
0.10
-1.57
-3.29
-5.07
-6.92
-8.84
-10.84
-12.92
-15.07
-17.21
-19.13
-20.50
-20.95
-20.17
-18.01
-14.60
-10.28
-5.50
-0.75
3.61
7.35
10.41
12.81
14.60
15.85
16.58
16.82
16.61
16.01
15.09
13.98
12.78
11.59
10.51
9.61
8.89
8.28
7.62
6.71
5.40
3.64
1.55
-0.69
-2.89
-4.94
-6.84
-8.68
-10.58
-12.61
-14.84
-17.27
-19.78
-22.13
-23.97
-24.88
-24.49
-22.67
-19.51
-15.38
-10.73
-6.01
-1.55
2.46
5.96
8.96
11.45
13.39
14.73
15.45
15.57
15.17
14.43
13.50
12.51
11.55
10.62
9.71
8.84
8.00
7.17
6.25
5.11
3.66
1.86
-0.19
-2.29
-4.24
-5.92
-7.37
-8.80
-10.45
-12.56
-15.21
-18.30
-21.53
-24.45
-26.53
-27.32
-26.50
-24.02
-20.11
-15.17
-9.72
-4.21
1.03
5.78
9.94
13.39
16.03
17.81
18.82
19.24
19.33
19.29
19.19
18.92
18.36
17.41
16.14
14.72
13.36
12.21
11.29
10.48
9.61
8.48
6.99
5.13
3.01
0.78
-1.43
-3.56
-5.63
-7.79
-10.19
-12.91
-15.90
-18.94
-21.66
-23.65
-24.49
-23.94
-21.97
-18.78
-14.72
-10.21
-5.61
-1.20
2.85
6.44
9.48
11.91
13.70
14.84
15.37
15.36
14.92
14.16
13.21
12.21
11.24
10.32
9.44
8.51
7.47
6.30
5.02
3.64
2.21
0.73
-0.80
-2.39
-4.02
-5.70
-7.43
-9.29
-11.37
-13.80
-16.60
-19.62
-22.51
-24.72
-25.69
-25.00
-22.51
-18.47
-13.40
-7.95
-2.68
2.05
6.14
9.61
12.52
14.91
16.74
17.93
18.46
18.35
17.73
16.80
15.75
14.73
13.79
12.91
11.98
10.91
9.68
8.32
6.88
5.40
3.86
2.22
0.49
-1.23
-2.84
-4.30
-5.68
-7.20
-9.13
-11.66
-14.72
-18.00
-20.96
-22.99
-23.58
-22.47
-19.72
-15.65
-10.76
-5.54
-0.39
4.40
8.66
12.23
14.98
16.78
17.62
17.63
17.07
16.28
15.46
14.71
13.96
13.12
12.15
11.12
10.16
9.31
8.51
7.61
6.47
5.03
3.39
1.69
0.06
-1.49
-3.07
-4.83
-6.90
-9.31
-12.01
-14.90
-17.76
-20.29
-22.09
-22.73
-21.90
-19.53
-15.82
-11.21
-6.25
-1.41
2.96
6.70
9.75
12.08
13.68
14.58
14.86
14.63
14.05
13.26
12.39
11.51
10.69
9.96
9.29
8.61
7.79
6.72
5.39
3.85
2.23
0.63
-0.91
-2.44
-4.05
-5.83
-7.83
-10.08
-12.62
-15.44
-18.43
-21.29
-23.51
-24.49
-23.79
-21.26
-17.21
-12.25
-7.09
-2.26
2.02
5.77
9.10
12.07
14.52
16.25
17.10
17.08
16.38
15.31
14.12
12.99
11.97
11.02
10.14
9.35
8.65
8.03
7.38
6.56
5.44
3.96
2.16
0.18
-1.80
-3.64
-5.31
-6.88
-8.54
-10.55
-13.07
-16.07
-19.31
-22.29
-24.42
-25.14
-24.15
-21.42
-17.26
-12.20
-6.84
-1.71
2.83
6.59
9.55
11.80
13.44
14.56
15.21
15.36
15.05
14.36
13.42
12.42
11.48
10.68
9.96
9.28
8.55
7.75
6.86
5.88
4.77
3.46
1.89
0.08
-1.89
-3.88
-5.79
-7.62
-9.46
-11.48
-13.80
-16.36
-18.93
-21.07
-22.24
-22.01
-20.15
-16.80
-12.37
-7.44
-2.55
1.92
5.85
9.21
12.06
14.38
16.10
17.15
17.51
17.29
16.67
15.86
15.02
14.23
13.52
12.84
12.11
11.27
10.30
9.18
7.93
6.58
5.16
3.71
2.25
0.80
-0.66
-2.17
-3.77
-5.52
-7.43
-9.54
-11.87
-14.45
-17.27
-20.15
-22.69
-24.38
-24.72
-23.45
-20.62
-16.62
-11.98
-7.18
-2.56
1.71
5.56
8.88
11.51
13.34
14.33
14.61
14.43
14.08
13.75
13.51
13.30
12.99
12.45
11.64
10.65
9.60
8.61
7.75
7.02
6.32
5.54
4.57
3.32
1.78
0.01
-1.85
-3.63
-5.19
-6.51
-7.72
-9.03
-10.68
-12.80
-15.37
-18.17
-20.86
-23.03
-24.31
-24.43
-23.24
-20.77
-17.24
-12.94
-8.22
-3.43
1.13
5.19
8.54
11.02
12.61
13.42
13.64
13.53
13.28
12.98
12.61
12.12
11.49
10.74
9.93
9.13
8.36
7.64
6.96
6.29
5.58
4.76
3.73
2.42
0.85
-0.91
-2.71
-4.41
-5.94
-7.30
-8.58
-9.89
-11.41
-13.28
-15.53
-18.05
-20.51
-22.41
-23.23
-22.62
-20.50
-17.10
-12.86
-8.27
-3.75
0.43
4.10
7.12
9.40
10.87
11.57
11.68
11.45
11.14
10.94
10.84
10.74
10.48
9.94
9.12
8.12
7.07
6.07
5.17
4.32
3.43
2.42
1.23
-0.17
-1.71
-3.31
-4.88
-6.37
-7.81
-9.33
-11.07
-13.09
-15.35
-17.66
-19.73
-21.24
-21.88
-21.40
-19.66
-16.69
-12.67
-7.99
-3.15
1.40
5.31
8.47
10.90
12.70
13.96
14.72
14.98
14.80
14.31
13.64
12.94
12.25
11.54
10.77
9.90
8.93
7.93
6.92
5.90
4.79
3.53
2.07
0.44
-1.28
-2.99
-4.63
-6.20
-7.77
-9.49
-11.47
-13.82
-16.50
-19.34
-22.02
-24.08
-25.08
-24.67
-22.77
-19.56
-15.43
-10.83
-6.17
-1.69
2.48
6.29
9.63
12.35
14.29
15.35
15.62
15.34
14.82
14.33
13.99
13.76
13.50
13.04
12.34
11.45
10.52
9.65
8.84
7.94
6.79
5.26
3.38
1.33
-0.61
-2.28
-3.62
-4.78
-6.04
-7.65
-9.75
-12.35
-15.27
-18.19
-20.74
-22.48
-23.06
-22.22
-19.93
-16.40
-12.06
-7.40
-2.87
1.22
4.73
7.65
10.00
11.79
13.01
13.65
13.78
13.51
12.99
12.38
11.75
11.14
10.53
9.85
9.10
8.27
7.40
6.49
5.55
4.48
3.21
1.66
-0.15
-2.12
-4.06
-5.80
-7.29
-8.66
-10.18
-12.12
-14.66
-17.74
-21.04
-24.00
-25.98
-26.42
-25.00
-21.74
-17.02
-11.47
-5.80
-0.60
3.85
7.51
10.50
12.96
14.89
16.22
16.87
16.85
16.35
15.59
14.75
13.93
13.09
12.23
11.34
10.46
9.64
8.88
8.09
7.16
5.99
4.53
2.83
0.95
-1.01
-2.95
-4.88
-6.85
-8.99
-11.47
-14.37
-17.61
-20.81
-23.43
-24.80
-24.45
-22.20
-18.28
-13.19
-7.60
-2.11
2.90
7.23
10.88
13.84
16.13
17.70
18.55
18.73
18.40
17.75
16.91
15.93
14.80
13.50
12.11
10.76
9.63
8.78
8.13
7.46
6.49
5.07
3.19
1.04
-1.18
-3.27
-5.19
-6.97
-8.76
-10.70
-12.94
-15.57
-18.55
-21.68
-24.54
-26.58
-27.25
-26.18
-23.34
-19.03
-13.77
-8.16
-2.67
2.41
6.92
10.78
13.89
16.15
17.50
17.98
17.78
17.16
16.36
15.56
14.79
14.05
13.28
12.47
11.60
10.67
9.64
8.44
7.01
5.34
3.48
1.57
-0.27
-1.95
-3.47
-4.91
-6.38
-8.00
-9.90
-12.19
-14.90
-17.98
-21.15
-23.90
-25.59
-25.63
-23.69
-19.83
-14.56
-8.61
-2.72
2.57
6.99
10.50
13.21
15.21
16.63
17.52
17.99
18.09
17.89
17.40
16.62
15.54
14.18
12.63
11.02
9.47
8.08
6.88
5.82
4.80
3.68
2.34
0.75
-1.07
-3.02
-4.97
-6.84
-8.67
-10.68
-13.08
-16.03
-19.37
-22.62
-25.02
-25.84
-24.61
-21.36
-16.59
-11.04
-5.46
-0.35
4.09
7.83
10.92
13.36
15.08
16.07
16.36
16.12
15.56
14.85
14.12
13.37
12.58
11.75
10.88
10.01
9.14
8.22
7.17
5.91
4.44
2.86
1.29
-0.19
-1.61
-3.14
-4.99
-7.29
-10.03
-13.06
-16.13
-18.95
-21.16
-22.39
-22.29
-20.63
-17.44
-13.06
-8.05
-2.99
1.67
5.76
9.29
12.31
14.79
16.62
17.67
17.94
17.57
16.81
15.92
15.07
14.33
13.70
13.09
12.40
11.53
10.42
9.08
7.58
6.01
4.44
2.90
1.32
-0.34
-2.10
-3.91
-5.73
-7.64
-9.78
-12.29
-15.15
-18.08
-20.52
-21.83
-21.50
-19.38
-15.72
-11.08
-6.12
-1.38
2.81
6.37
9.36
11.86
13.87
15.33
16.17
16.36
15.99
15.25
14.35
13.49
12.78
12.22
11.73
11.18
10.44
9.47
8.25
6.82
5.22
3.53
1.77
-0.01
-1.81
-3.63
-5.45
-7.31
-9.25
-11.34
-13.60
-15.95
-18.13
-19.74
-20.34
-19.54
-17.21
-13.50
-8.88
-3.98
0.62
4.51
7.59
9.94
11.76
13.15
14.12
14.56
14.36
13.53
12.26
10.90
9.73
8.90
8.30
7.66
6.75
5.47
3.93
2.37
0.96
-0.28
-1.47
-2.81
-4.39
-6.18
-8.07
-9.97
-11.92
-14.03
-16.39
-18.84
-21.01
-22.31
-22.21
-20.41
-16.99
-12.40
-7.31
-2.34
2.03
5.61
8.43
10.63
12.33
13.56
14.25
14.34
13.86
12.98
11.95
11.01
10.32
9.87
9.47
8.94
8.10
6.91
5.46
3.90
2.36
0.92
-0.43
-1.81
-3.36
-5.15
-7.22
-9.49
-11.86
-14.23
-16.54
-18.70
-20.51
-21.62
-21.65
-20.31
-17.58
-13.82
-9.64
-5.66
-2.29
0.41
2.62
4.58
6.41
7.99
9.08
9.47
9.15
8.30
7.22
6.21
5.43
4.88
4.42
3.90
3.21
2.31
1.20
-0.10
-1.57
-3.23
-5.08
-7.10
-9.22
-11.35
-13.40
-15.37
-17.35
-19.50
-21.96
-24.66
-27.29
-29.31
-30.12
-29.23
-26.46
-22.05
-16.48
-10.43
-4.48
0.95
5.65
9.61
12.87
15.47
17.43
18.75
19.46
19.65
19.45
19.06
18.59
18.09
17.56
16.94
16.19
15.27
14.16
12.87
11.41
9.79
8.07
6.32
4.58
2.85
1.08
-0.78
-2.83
-5.13
-7.76
-10.72
-13.90
-16.97
-19.43
-20.71
-20.35
-18.17
-14.37
-9.45
-4.10
1.06
5.57
9.22
12.00
14.04
15.51
16.56
17.27
17.61
17.54
17.01
16.10
14.94
13.72
12.60
11.64
10.84
10.15
9.51
8.88
8.21
7.34
6.14
4.51
2.49
0.30
-1.78
-3.49
-4.83
-5.97
-7.25
-9.01
-11.45
-14.53
-17.94
-21.17
-23.61
-24.69
-24.01
-21.50
-17.43
-12.33
-6.91
-1.73
2.80
6.56
9.60
12.01
13.87
15.17
15.93
16.17
15.98
15.52
14.93
14.34
13.77
13.22
12.60
11.86
10.99
9.99
8.94
7.87
6.82
5.76
4.60
3.22
1.56
-0.33
-2.33
-4.26
-5.98
-7.44
-8.73
-10.07
-11.69
-13.80
-16.44
-19.45
-22.45
-24.94
-26.34
-26.21
-24.37
-20.97
-16.47
-11.47
-6.52
-1.98
2.04
5.57
8.66
11.25
13.17
14.30
14.64
14.38
13.84
13.30
12.89
12.55
12.07
11.33
10.31
9.14
8.04
7.14
6.50
5.99
5.45
4.69
3.62
2.26
0.69
-0.95
-2.58
-4.16
-5.73
-7.38
-9.20
-11.30
-13.71
-16.44
-19.37
-22.22
-24.53
-25.78
-25.46
-23.30
-19.41
-14.27
-8.57
-3.02
1.88
5.93
9.18
11.74
13.69
14.97
15.53
15.38
14.68
13.73
12.82
12.11
11.59
11.10
10.51
9.76
8.96
8.25
7.71
7.26
6.73
5.89
4.61
2.91
0.95
-1.07
-2.98
-4.70
-6.22
-7.63
-9.09
-10.78
-12.88
-15.41
-18.15
-20.65
-22.33
-22.64
-21.32
-18.39
-14.23
-9.32
-4.22
0.65
4.96
8.54
11.29
13.22
14.43
15.05
15.23
15.11
14.81
14.39
13.87
13.23
12.45
11.52
10.45
9.34
8.29
7.40
6.66
5.97
5.14
4.03
2.55
0.72
-1.34
-3.49
-5.55
-7.39
-8.95
-10.29
-11.62
-13.23
-15.40
-18.19
-21.35
-24.30
-26.32
-26.77
-25.38
-22.26
-17.90
-12.90
-7.80
-2.93
1.56
5.61
9.16
12.09
14.26
15.60
16.19
16.25
16.04
15.75
15.41
14.93
14.17
13.07
11.71
10.30
9.01
7.97
7.17
6.48
5.76
4.87
3.72
2.28
0.58
-1.25
-3.08
-4.75
-6.20
-7.50
-8.80
-10.35
-12.33
-14.85
-17.86
-21.15
-24.30
-26.75
-27.88
-27.18
-24.44
-19.88
-14.09
-7.87
-1.97
3.12
7.24
10.47
12.97
14.84
16.09
16.70
16.74
16.36
15.80
15.23
14.70
14.13
13.39
12.40
11.22
9.95
8.77
7.74
6.85
6.02
5.11
4.05
2.76
1.26
-0.44
-2.25
-4.05
-5.71
-7.18
-8.53
-9.91
-11.56
-13.70
-16.45
-19.69
-23.10
-26.11
-28.09
-28.44
-26.85
-23.35
-18.37
-12.56
-6.65
-1.19
3.53
7.42
10.55
12.96
14.67
15.63
15.90
15.62
15.01
14.32
13.68
13.12
12.57
11.93
11.18
10.32
9.42
8.52
7.65
6.76
5.76
4.59
3.18
1.53
-0.30
-2.21
-4.08
-5.83
-7.48
-9.16
-11.08
-13.40
-16.19
-19.25
-22.19
-24.44
-25.37
-24.54
-21.79
-17.35
-11.74
-5.67
0.18
5.32
9.53
12.78
15.15
16.75
17.63
17.90
17.68
17.14
16.42
15.62
14.76
13.84
12.86
11.87
10.97
10.20
9.52
8.80
7.87
6.58
4.93
2.97
0.89
-1.18
-3.13
-4.94
-6.69
-8.49
-10.49
-12.80
-15.46
-18.40
-21.34
-23.86
-25.41
-25.47
-23.71
-20.15
-15.15
-9.34
-3.43
2.00
6.64
10.38
13.28
15.41
16.80
17.47
17.48
16.98
16.18
15.28
14.44
13.68
12.95
12.16
11.25
10.19
9.00
7.72
6.38
4.97
3.48
1.92
0.29
-1.38
-3.05
-4.72
-6.43
-8.28
-10.37
-12.83
-15.68
-18.83
-22.02
-24.81
-26.62
-26.92
-25.38
-22.04
-17.31
-11.82
-6.26
-1.11
3.41
7.25
10.47
13.06
14.95
16.08
16.49
16.34
15.86
15.25
14.63
13.98
13.25
12.40
11.48
10.58
9.77
9.03
8.24
7.21
5.83
4.12
2.21
0.31
-1.43
-3.03
-4.65
-6.50
-8.74
-11.37
-14.29
-17.32
-20.26
-22.91
-25.01
-26.17
-25.97
-24.09
-20.50
-15.56
-9.90
-4.24
0.87
5.18
8.73
11.67
14.06
15.89
17.04
17.45
17.20
16.49
15.54
14.54
13.55
12.55
11.51
10.46
9.43
8.48
7.59
6.68
5.60
4.24
2.56
0.61
-1.49
-3.59
-5.60
-7.53
-9.48
-11.61
-14.08
-16.92
-19.98
-22.88
-25.09
-25.98
-25.11
-22.33
-17.86
-12.25
-6.22
-0.41
4.71
8.96
12.32
14.85
16.66
17.82
18.42
18.58
18.42
18.04
17.46
16.66
15.63
14.43
13.16
11.96
10.89
9.91
8.90
7.72
6.30
4.65
2.91
1.18
-0.49
-2.11
-3.78
-5.60
-7.64
-10.00
-12.73
-15.79
-19.00
-21.93
-23.99
-24.57
-23.26
-20.04
-15.33
-9.85
-4.31
0.79
5.25
9.11
12.47
15.35
17.62
19.16
19.90
19.93
19.43
18.59
17.53
16.30
14.91
13.42
11.94
10.62
9.56
8.73
7.99
7.13
5.98
4.45
2.58
0.53
-1.51
-3.39
-5.04
-6.54
-8.08
-9.90
-12.21
-15.10
-18.42
-21.82
-24.75
-26.55
-26.71
-24.90
-21.22
-16.10
-10.23
-4.35
0.97
5.45
9.06
11.94
14.22
15.94
17.05
17.47
17.22
16.40
15.26
14.02
12.87
11.92
11.18
10.58
10.00
9.35
8.52
7.46
6.18
4.67
2.96
1.06
-0.98
-3.09
-5.17
-7.14
-9.03
-10.98
-13.22
-15.94
-19.08
-22.26
-24.84
-26.12
-25.58
-23.11
-19.06
-14.05
-8.74
-3.60
1.13
5.44
9.30
12.64
15.26
16.99
17.75
17.67
17.00
16.02
14.94
13.86
12.83
11.86
11.03
10.36
9.82
9.26
8.48
7.34
5.81
4.01
2.09
0.20
-1.60
-3.30
-4.93
-6.53
-8.20
-10.10
-12.37
-14.98
-17.62
-19.70
-20.55
-19.66
-16.94
-12.76
-7.81
-2.78
1.86
5.89
9.34
12.24
14.59
16.30
17.29
17.59
17.35
16.81
16.15
15.47
14.71
13.78
12.62
11.25
9.76
8.28
6.86
5.52
4.19
2.83
1.40
-0.14
-1.80
-3.59
-5.52
-7.59
-9.77
-12.07
-14.49
-16.96
-19.31
-21.18
-22.16
-21.85
-20.09
-16.97
-12.86
-8.22
-3.51
0.94
4.92
8.27
10.88
12.65
13.55
13.70
13.30
12.64
11.95
11.37
10.93
10.55
10.11
9.50
8.67
7.65
6.50
5.34
4.20
3.08
1.92
0.64
-0.79
-2.33
-3.95
-5.66
-7.56
-9.80
-12.49
-15.61
-18.89
-21.85
-23.91
-24.56
-23.54
-20.92
-17.07
-12.52
-7.78
-3.25
0.81
4.30
7.17
9.42
11.03
12.07
12.60
12.70
12.46
11.94
11.20
10.34
9.44
8.60
7.85
7.15
6.42
5.58
4.57
3.40
2.10
0.71
-0.74
-2.24
-3.80
-5.45
-7.21
-9.10
-11.19
-13.55
-16.16
-18.92
-21.52
-23.48
-24.26
-23.44
-20.87
-16.79
-11.78
-6.50
-1.57
2.69
6.18
8.98
11.18
12.83
13.97
14.63
14.93
14.98
14.89
14.70
14.33
13.70
12.76
11.53
10.14
8.77
7.55
6.57
5.78
5.05
4.19
3.04
1.56
-0.19
-2.08
-3.97
-5.84
-7.78
-9.91
-12.35
-15.08
-17.90
-20.46
-22.27
-22.87
-21.93
-19.40
-15.54
-10.84
-5.92
-1.33
2.60
5.73
8.11
9.83
10.95
11.49
11.47
10.98
10.15
9.16
8.17
7.26
6.45
5.66
4.81
3.87
2.83
1.74
0.65
-0.42
-1.52
-2.68
-3.97
-5.39
-6.93
-8.50
-10.06
-11.60
-13.21
-15.02
-17.17
-19.74
-22.61
-25.47
-27.78
-28.91
-28.34
-25.85
-21.62
-16.24
-10.43
-4.90
-0.02
4.12
7.62
10.58
12.96
14.63
15.45
15.43
14.80
13.90
12.99
12.22
11.54
10.85
10.09
9.31
8.64
8.15
7.79
7.42
6.84
5.91
4.56
2.83
0.81
-1.37
-3.58
-5.73
-7.74
-9.64
-11.52
-13.59
-15.96
-18.53
-20.91
-22.47
-22.55
-20.77
-17.17
-12.24
-6.71
-1.25
3.68
7.93
11.49
14.40
16.63
18.15
18.97
19.17
18.90
18.33
17.54
16.59
15.50
14.34
13.21
12.21
11.36
10.60
9.76
8.71
7.32
5.61
3.64
1.57
-0.44
-2.27
-3.89
-5.39
-6.98
-8.94
-11.46
-14.58
-18.08
-21.48
-24.15
-25.45
-24.92
-22.44
-18.23
-12.81
-6.89
-1.14
3.94
8.10
11.28
13.62
15.27
16.37
17.02
17.27
17.14
16.66
15.87
14.89
13.86
12.96
12.33
11.98
11.75
11.40
10.69
9.49
7.88
6.05
4.19
2.38
0.59
-1.27
-3.27
-5.40
-7.64
-10.00
-12.50
-15.15
-17.82
-20.14
-21.58
-21.58
-19.80
-16.25
-11.37
-5.86
-0.44
4.31
8.14
11.07
13.28
14.95
16.12
16.77
16.79
16.22
15.20
13.99
12.84
11.86
11.02
10.19
9.27
8.25
7.20
6.19
5.19
4.08
2.75
1.17
-0.60
-2.40
-4.15
-5.88
-7.75
-9.96
-12.64
-15.73
-18.95
-21.79
-23.67
-24.02
-22.48
-19.03
-14.01
-8.09
-2.05
3.41
7.81
11.01
13.10
14.31
14.88
14.97
14.67
14.02
13.05
11.88
10.63
9.47
8.43
7.46
6.39
5.05
3.38
1.46
-0.50
-2.29
-3.77
-4.96
-6.01
-7.13
-8.52
-10.29
-12.51
-15.19
-18.25
-21.49
-24.58
-27.00
-28.21
-27.75
-25.46
-21.51
-16.41
-10.84
-5.44
-0.59
3.57
7.08
10.00
12.31
13.90
14.67
14.63
13.90
12.72
11.35
9.98
8.76
7.73
6.90
6.19
5.44
4.45
3.09
1.33
-0.69
-2.71
-4.54
-6.09
-7.49
-8.96
-10.77
-13.06
-15.82
-18.78
-21.50
-23.42
-23.98
-22.84
-19.98
-15.69
-10.47
-4.91
0.58
5.71
10.34
14.35
17.59
19.86
21.03
21.17
20.51
19.42
18.28
17.36
16.78
16.45
16.22
15.86
15.22
14.24
12.96
11.52
10.06
8.70
7.47
6.33
5.14
3.76
2.05
-0.09
-2.70
-5.70
-8.84
-11.72
-13.83
-14.69
-13.99
-11.66
-7.93
-3.23
1.93
7.03
11.66
15.50
18.31
19.98
20.49
19.97
18.70
17.05
15.40
14.01
12.95
12.14
11.42
10.66
9.77
8.77
7.70
6.59
5.43
4.19
2.84
1.37
-0.22
-1.92
-3.67
-5.40
-7.06
-8.64
-10.19
-11.84
-13.76
-16.08
-18.85
-21.97
-25.15
-27.96
-29.80
-30.13
-28.60
-25.17
-20.19
-14.28
-8.15
-2.39
2.61
6.69
9.81
12.03
13.44
14.11
14.18
13.79
13.11
12.31
11.52
10.86
10.33
9.88
9.36
8.63
7.61
6.35
5.00
3.72
2.60
1.59
0.55
-0.67
-2.17
-3.95
-5.91
-7.97
-10.13
-12.47
-15.12
-18.10
-21.16
-23.81
-25.37
-25.27
-23.23
-19.44
-14.44
-8.96
-3.61
1.23
5.43
9.01
11.99
14.33
15.98
16.91
17.19
16.92
16.24
15.28
14.14
12.95
11.85
10.94
10.26
9.78
9.38
8.92
8.26
7.30
6.01
4.38
2.50
0.48
-1.54
-3.41
-5.09
-6.62
-8.15
-9.91
-12.08
-14.71
-17.65
-20.44
-22.48
-23.11
-21.88
-18.72
-13.98
-8.35
-2.64
2.52
6.78
10.12
12.68
14.64
16.06
16.96
17.34
17.29
16.95
16.49
16.01
15.49
14.83
13.94
12.78
11.45
10.12
8.96
8.04
7.31
6.62
5.76
4.58
3.02
1.17
-0.78
-2.65
-4.34
-5.84
-7.28
-8.86
-10.73
-12.97
-15.51
-18.10
-20.31
-21.68
-21.73
-20.21
-17.13
-12.85
-7.95
-3.10
1.16
4.53
6.98
8.66
9.78
10.52
10.96
11.10
10.95
10.54
9.93
9.19
8.38
7.50
6.57
5.65
4.81
4.12
3.57
3.10
2.54
1.76
0.65
-0.78
-2.43
-4.14
-5.75
-7.14
-8.29
-9.32
-10.38
-11.68
-13.36
-15.36
-17.42
-19.10
-19.86
-19.32
-17.31
-13.99
-9.76
-5.15
-0.66
3.32
6.54
8.90
10.42
11.21
11.44
11.31
10.99
10.59
10.13
9.59
8.92
8.15
7.29
6.42
5.60
4.85
4.15
3.46
2.72
1.92
1.07
0.22
-0.64
-1.54
-2.53
-3.68
-5.01
-6.51
-8.15
-9.90
-11.70
-13.39
-14.73
-15.35
-14.92
-13.30
-10.59
-7.15
-3.50
-0.06
2.89
5.30
7.23
8.76
9.90
10.58
10.74
10.39
9.62
8.64
7.70
6.96
6.48
6.21
5.98
5.65
5.13
4.43
3.64
2.84
2.05
1.24
0.32
-0.74
-1.93
-3.14
-4.26
-5.22
-6.09
-7.00
-8.14
-9.64
-11.52
-13.63
-15.68
-17.27
-18.03
-17.65
-16.02
-13.27
-9.74
-5.87
-2.16
1.04
3.58
5.46
6.83
7.85
8.59
9.09
9.29
9.20
8.86
8.39
7.89
7.43
7.02
6.65
6.26
5.81
5.27
4.64
3.96
3.26
2.60
1.97
1.29
0.43
-0.71
-2.15
-3.78
-5.44
-6.95
-8.24
-9.31
-10.29
-11.29
-12.47
-13.93
-15.74
-17.84
-20.04
-21.94
-23.04
-22.90
-21.30
-18.36
-14.48
-10.20
-6.00
-2.19
1.09
3.87
6.16
7.97
9.27
10.03
10.26
10.05
9.57
8.98
8.45
8.08
7.94
8.01
8.26
8.60
8.93
9.09
8.98
8.50
7.64
6.49
5.20
3.92
2.71
1.53
0.27
-1.18
-2.80
-4.50
-6.10
-7.45
-8.53
-9.43
-10.34
-11.51
-13.11
-15.23
-17.80
-20.54
-23.02
-24.72
-25.17
-24.10
-21.50
-17.67
-13.07
-8.20
-3.46
0.89
4.72
7.97
10.56
12.43
13.53
13.92
13.74
13.26
12.76
12.46
12.41
12.53
12.64
12.60
12.33
11.91
11.43
10.98
10.58
10.16
9.62
8.89
7.98
6.93
5.82
4.67
3.45
2.11
0.61
-1.06
-2.81
-4.51
-6.05
-7.37
-8.54
-9.68
-10.99
-12.62
-14.68
-17.14
-19.86
-22.58
-24.87
-26.21
-26.11
-24.27
-20.67
-15.68
-9.92
-4.12
1.14
5.52
8.93
11.47
13.29
14.51
15.20
15.44
15.35
15.09
14.84
14.70
14.69
14.71
14.67
14.47
14.14
13.74
13.35
13.01
12.61
12.03
11.13
9.90
8.45
6.96
5.59
4.38
3.25
2.01
0.51
-1.27
-3.23
-5.18
-6.98
-8.57
-10.02
-11.48
-13.09
-14.96
-17.15
-19.62
-22.23
-24.65
-26.41
-27.01
-26.04
-23.42
-19.37
-14.40
-9.10
-3.96
0.73
4.84
8.33
11.18
13.33
14.69
15.29
15.22
14.71
14.01
13.33
12.82
12.51
12.39
12.38
12.45
12.50
12.46
12.25
11.79
11.09
10.19
9.18
8.12
6.99
5.72
4.23
2.48
0.53
-1.49
-3.43
-5.21
-6.80
-8.25
-9.64
-11.08
-12.69
-14.60
-16.89
-19.51
-22.24
-24.65
-26.14
-26.18
-24.45
-21.00
-16.24
-10.84
-5.43
-0.52
3.66
7.08
9.81
11.93
13.51
14.58
15.20
15.46
15.45
15.23
14.84
14.34
13.77
13.17
12.59
12.02
11.46
10.90
10.33
9.76
9.15
8.42
7.56
6.56
5.54
4.57
3.67
2.71
1.49
-0.13
-2.16
-4.40
-6.59
-8.52
-10.17
-11.69
-13.32
-15.26
-17.57
-20.17
-22.81
-25.16
-26.80
-27.27
-26.19
-23.41
-19.12
-13.79
-8.12
-2.73
1.97
5.87
9.10
11.84
14.14
15.93
17.05
17.41
17.13
16.45
15.75
15.30
15.17
15.27
15.35
15.18
14.66
13.82
12.83
11.86
11.03
10.32
9.61
8.72
7.46
5.77
3.71
1.44
-0.85
-3.04
-5.08
-7.03
-8.98
-11.01
-13.16
-15.46
-17.92
-20.50
-23.01
-25.13
-26.36
-26.24
-24.47
-21.03
-16.31
-10.91
-5.44
-0.40
3.96
7.58
10.52
12.87
14.65
15.88
16.60
16.90
16.90
16.72
16.42
16.02
15.52
14.92
14.23
13.50
12.77
12.03
11.24
10.37
9.44
8.54
7.70
6.91
6.02
4.83
3.17
1.04
-1.40
-3.88
-6.15
-8.09
-9.74
-11.26
-12.84
-14.60
-16.59
-18.82
-21.21
-23.63
-25.79
-27.23
-27.47
-26.09
-22.98
-18.37
-12.81
-6.98
-1.44
3.45
7.62
11.11
13.97
16.19
17.68
18.37
18.34
17.79
17.06
16.44
16.10
16.02
16.01
15.84
15.37
14.58
13.58
12.52
11.51
10.59
9.72
8.85
7.89
6.80
5.57
4.22
2.74
1.13
-0.60
-2.44
-4.37
-6.31
-8.18
-9.96
-11.74
-13.67
-15.99
-18.81
-22.04
-25.31
-28.05
-29.65
-29.60
-27.71
-24.09
-19.14
-13.42
-7.52
-1.92
3.06
7.25
10.62
13.21
15.09
16.36
17.11
17.48
17.57
17.47
17.25
16.93
16.52
16.05
15.53
15.02
14.51
13.99
13.41
12.73
11.91
10.91
9.73
8.36
6.80
5.05
3.17
1.22
-0.71
-2.56
-4.33
-6.06
-7.82
-9.65
-11.58
-13.58
-15.68
-17.94
-20.44
-23.19
-25.96
-28.30
-29.52
-29.01
-26.41
-21.88
-16.02
-9.68
-3.66
1.51
5.68
8.96
11.56
13.61
15.18
16.23
16.77
16.86
16.68
16.40
16.12
15.85
15.51
14.99
14.24
13.32
12.35
11.46
10.74
10.14
9.52
8.67
7.42
5.71
3.62
1.34
-0.87
-2.81
-4.40
-5.72
-6.99
-8.45
-10.31
-12.63
-15.36
-18.28
-21.06
-23.26
-24.43
-24.20
-22.36
-18.97
-14.32
-8.95
-3.45
1.67
6.07
9.64
12.44
14.61
16.25
17.46
18.26
18.67
18.74
18.54
18.14
17.57
16.84
15.92
14.83
13.65
12.50
11.48
10.64
9.93
9.26
8.48
7.48
6.17
4.50
2.51
0.31
-1.94
-4.06
-5.93
-7.55
-9.04
-10.62
-12.53
-14.90
-17.75
-20.91
-24.10
-26.94
-28.96
-29.70
-28.87
-26.40
-22.52
-17.69
-12.52
-7.51
-3.00
0.92
4.29
7.19
9.67
11.65
13.09
13.93
14.28
14.27
14.07
13.80
13.47
13.02
12.38
11.60
10.77
10.01
9.37
8.82
8.21
7.39
6.27
4.84
3.13
1.25
-0.70
-2.56
-4.20
-5.53
-6.61
-7.63
-8.93
-10.82
-13.48
-16.75
-20.14
-22.99
-24.61
-24.55
-22.71
-19.35
-14.96
-10.07
-5.13
-0.44
3.84
7.63
10.87
13.49
15.45
16.78
17.51
17.73
17.57
17.13
16.56
15.93
15.29
14.60
13.80
12.87
11.83
10.80
9.88
9.11
8.40
7.56
6.41
4.87
3.03
1.10
-0.73
-2.37
-3.90
-5.52
-7.43
-9.76
-12.52
-15.58
-18.66
-21.39
-23.30
-23.93
-22.97
-20.41
-16.52
-11.86
-7.00
-2.39
1.80
5.59
9.02
12.08
14.59
16.31
17.11
17.07
16.49
15.73
15.14
14.81
14.68
14.50
14.05
13.24
12.14
10.95
9.92
9.16
8.63
8.13
7.40
6.22
4.55
2.50
0.29
-1.84
-3.75
-5.41
-6.90
-8.35
-9.92
-11.71
-13.84
-16.36
-19.22
-22.20
-24.92
-26.85
-27.46
-26.37
-23.51
-19.18
-13.92
-8.41
-3.24
1.25
4.94
7.91
10.28
12.17
13.61
14.62
15.22
15.47
15.47
15.32
15.08
14.76
14.36
13.84
13.18
12.41
11.57
10.72
9.93
9.22
8.54
7.72
6.58
4.98
2.91
0.55
-1.84
-3.97
-5.66
-6.90
-7.85
-8.74
-9.83
-11.30
-13.24
-15.65
-18.48
-21.59
-24.70
-27.37
-29.02
-29.09
-27.26
-23.57
-18.47
-12.67
-6.91
-1.68
2.78
6.50
9.59
12.11
14.03
15.27
15.81
15.77
15.41
15.00
14.73
14.62
14.54
14.31
13.81
13.06
12.18
11.34
10.64
10.08
9.57
9.01
8.33
7.46
6.36
5.00
3.35
1.41
-0.71
-2.93
-5.11
-7.21
-9.19
-11.05
-12.83
-14.57
-16.37
-18.37
-20.67
-23.16
-25.52
-27.19
-27.55
-26.19
-23.06
-18.52
-13.19
-7.73
-2.65
1.82
5.64
8.86
11.52
13.58
14.98
15.71
15.85
15.58
15.13
14.68
14.34
14.10
13.84
13.44
12.77
11.82
10.67
9.44
8.27
7.23
6.31
5.41
4.44
3.32
2.01
0.54
-1.03
-2.63
-4.24
-5.80
-7.33
-8.86
-10.47
-12.25
-14.32
-16.75
-19.53
-22.49
-25.28
-27.40
-28.29
-27.50
-24.90
-20.68
-15.39
-9.70
-4.24
0.59
4.63
7.90
10.52
12.56
14.07
15.09
15.64
15.79
15.62
15.25
14.79
14.31
13.82
13.29
12.60
11.69
10.58
9.41
8.39
7.68
7.27
6.95
6.39
5.31
3.63
1.49
-0.78
-2.87
-4.60
-6.00
-7.24
-8.53
-10.03
-11.89
-14.17
-16.85
-19.78
-22.62
-24.82
-25.74
-24.90
-22.13
-17.71
-12.26
-6.54
-1.19
3.40
7.13
10.09
12.39
14.07
15.11
15.49
15.29
14.74
14.13
13.72
13.61
13.67
13.65
13.27
12.38
11.06
9.56
8.16
7.07
6.30
5.68
4.92
3.78
2.17
0.14
-2.11
-4.32
-6.30
-7.95
-9.34
-10.63
-12.05
-13.84
-16.14
-18.93
-22.01
-24.96
-27.25
-28.35
-27.92
-25.86
-22.38
-17.89
-12.84
-7.68
-2.72
1.82
5.76
9.01
11.53
13.33
14.51
15.16
15.40
15.30
14.95
14.46
13.90
13.34
12.81
12.28
11.68
11.00
10.24
9.47
8.69
7.84
6.77
5.30
3.30
0.83
-1.88
-4.50
-6.69
-8.30
-9.46
-10.53
-11.95
-14.09
-17.03
-20.59
-24.28
-27.50
-29.60
-30.11
-28.77
-25.61
-20.98
-15.38
-9.46
-3.75
1.33
5.60
9.05
11.75
13.79
15.24
16.14
16.58
16.64
16.48
16.22
15.90
15.48
14.86
13.96
12.80
11.54
10.38
9.49
8.83
8.24
7.45
6.23
4.52
2.40
0.11
-2.15
-4.24
-6.15
-7.97
-9.82
-11.83
-14.10
-16.69
-19.60
-22.68
-25.61
-27.85
-28.77
-27.88
-25.03
-20.49
-14.93
-9.11
-3.67
1.11
5.23
8.83
11.97
14.53
16.34
17.28
17.41
17.02
16.45
15.97
15.63
15.33
14.89
14.17
13.18
12.07
11.01
10.14
9.45
8.76
7.82
6.43
4.52
2.22
-0.19
-2.41
-4.26
-5.75
-7.08
-8.58
-10.55
-13.17
-16.45
-20.16
-23.86
-26.95
-28.76
-28.79
-26.82
-23.04
-17.97
-12.27
-6.58
-1.29
3.41
7.49
10.93
13.72
15.80
17.14
17.82
17.96
17.76
17.35
16.78
16.08
15.21
14.19
13.05
11.87
10.71
9.62
8.62
7.63
6.56
5.31
3.83
2.13
0.32
-1.51
-3.27
-5.00
-6.81
-8.86
-11.31
-14.20
-17.45
-20.78
-23.75
-25.82
-26.46
-25.33
-22.36
-17.86
-12.42
-6.68
-1.20
3.73
8.04
11.77
14.97
17.59
19.52
20.68
21.06
20.81
20.15
19.30
18.42
17.58
16.76
15.91
15.01
14.06
13.10
12.15
11.16
10.03
8.66
6.98
5.02
2.88
0.73
-1.29
-3.13
-4.84
-6.58
-8.57
-10.99
-13.87
-17.11
-20.36
-23.14
-24.89
-25.16
-23.74
-20.65
-16.19
-10.82
-5.05
0.69
6.01
10.64
14.40
17.20
19.04
20.03
20.37
20.32
20.09
19.83
19.53
19.10
18.40
17.36
16.01
14.49
12.99
11.65
10.55
9.64
8.77
7.79
6.53
4.93
3.01
0.85
-1.38
-3.53
-5.48
-7.23
-8.90
-10.74
-13.02
-15.86
-19.19
-22.66
-25.68
-27.56
-27.78
-26.05
-22.48
-17.55
-11.92
-6.26
-1.06
3.47
7.34
10.67
13.54
15.91
17.63
18.61
18.85
18.52
17.89
17.21
16.57
15.94
15.21
14.28
13.18
12.05
11.04
10.30
9.76
9.24
8.48
7.27
5.55
3.43
1.17
-1.00
-2.91
-4.54
-6.00
-7.43
-8.99
-10.81
-12.98
-15.55
-18.49
-21.59
-24.44
-26.51
-27.29
-26.44
-23.94
-20.06
-15.30
-10.21
-5.27
-0.76
3.17
6.51
9.32
11.68
13.60
15.06
16.01
16.44
16.42
16.10
15.69
15.35
15.15
15.02
14.80
14.37
13.67
12.78
11.81
10.86
9.91
8.88
7.64
6.14
4.43
2.61
0.82
-0.88
-2.55
-4.29
-6.18
-8.26
-10.44
-12.66
-14.89
-17.19
-19.57
-21.91
-23.88
-25.01
-24.86
-23.20
-20.15
-16.06
-11.42
-6.69
-2.20
1.87
5.42
8.38
10.71
12.38
13.45
14.01
14.22
14.18
13.98
13.67
13.26
12.81
12.32
11.81
11.27
10.68
10.02
9.35
8.73
8.20
7.74
7.25
6.52
5.42
3.88
2.02
0.03
-1.87
-3.57
-5.10
-6.61
-8.27
-10.20
-12.44
-14.93
-17.55
-20.12
-22.41
-24.11
-24.86
-24.38
-22.51
-19.33
-15.14
-10.43
-5.73
-1.50
2.02
4.79
6.93
8.63
9.98
11.00
11.60
11.71
11.34
10.68
9.97
9.43
9.12
8.92
8.61
7.99
7.02
5.89
4.89
4.22
3.89
3.65
3.15
2.15
0.63
-1.15
-2.84
-4.17
-5.11
-5.87
-6.81
-8.22
-10.23
-12.77
-15.65
-18.57
-21.19
-23.17
-24.12
-23.77
-21.96
-18.80
-14.63
-9.96
-5.29
-1.00
2.72
5.86
8.46
10.56
12.14
13.15
13.59
13.54
13.14
12.62
12.13
11.75
11.47
11.16
10.66
9.90
8.87
7.70
6.57
5.60
4.79
3.98
2.97
1.61
-0.10
-2.01
-3.86
-5.47
-6.80
-7.98
-9.21
-10.70
-12.56
-14.78
-17.26
-19.81
-22.19
-24.04
-24.99
-24.74
-23.10
-20.11
-16.07
-11.43
-6.68
-2.24
1.68
5.04
7.89
10.29
12.21
13.56
14.23
14.25
13.76
13.06
12.41
11.95
11.64
11.25
10.60
9.62
8.44
7.29
6.36
5.67
5.04
4.19
2.93
1.23
-0.72
-2.63
-4.28
-5.62
-6.82
-8.11
-9.74
-11.79
-14.18
-16.76
-19.35
-21.76
-23.79
-25.11
-25.34
-24.11
-21.28
-17.05
-11.95
-6.67
-1.82
2.28
5.66
8.50
11.01
13.23
15.02
16.19
16.61
16.35
15.62
14.71
13.83
13.05
12.32
11.55
10.71
9.84
9.04
8.37
7.76
7.06
6.04
4.59
2.72
0.60
-1.53
-3.48
-5.17
-6.64
-8.05
-9.61
-11.50
-13.87
-16.69
-19.78
-22.74
-24.98
-25.97
-25.31
-22.92
-19.04
-14.18
-8.85
-3.54
1.41
5.79
9.44
12.27
14.22
15.35
15.79
15.77
15.51
15.16
14.77
14.31
13.68
12.81
11.72
10.50
9.30
8.31
7.61
7.18
6.83
6.27
5.26
3.69
1.69
-0.46
-2.43
-4.01
-5.23
-6.34
-7.71
-9.60
-12.09
-15.03
-18.14
-21.00
-23.22
-24.40
-24.25
-22.61
-19.52
-15.28
-10.35
-5.26
-0.48
3.68
7.11
9.78
11.75
13.10
13.92
14.32
14.37
14.15
13.69
12.99
12.07
11.00
9.87
8.79
7.87
7.14
6.58
6.10
5.51
4.67
3.44
1.82
-0.04
-1.98
-3.81
-5.46
-6.99
-8.56
-10.35
-12.53
-15.13
-18.07
-21.09
-23.82
-25.77
-26.45
-25.49
-22.76
-18.42
-12.98
-7.09
-1.40
3.60
7.67
10.81
13.14
14.81
15.93
16.53
16.66
16.36
15.73
14.86
13.88
12.86
11.85
10.91
10.06
9.32
8.65
7.96
7.12
6.01
4.58
2.88
1.05
-0.78
-2.51
-4.15
-5.80
-7.60
-9.69
-12.16
-14.99
-18.00
-20.82
-22.90
-23.66
-22.62
-19.67
-15.10
-9.54
-3.77
1.57
6.11
9.78
12.71
15.09
16.98
18.36
19.14
19.29
18.87
18.04
16.99
15.90
14.88
13.98
13.18
12.44
11.65
10.72
9.54
8.05
6.24
4.20
2.05
-0.10
-2.17
-4.14
-6.03
-7.90
-9.88
-12.12
-14.76
-17.83
-21.10
-24.01
-25.80
-25.73
-23.43
-19.03
-13.22
-6.95
-1.10
3.79
7.62
10.57
12.88
14.67
15.87
16.36
16.14
15.38
14.35
13.36
12.57
11.95
11.36
10.65
9.71
8.56
7.28
5.95
4.64
3.36
2.07
0.71
-0.79
-2.53
-4.55
-6.87
-9.51
-12.45
-15.64
-18.90
-21.90
-24.15
-25.13
-24.40
-21.84
-17.70
-12.53
-6.99
-1.71
2.92
6.77
9.84
12.22
13.98
15.15
15.77
15.90
15.61
15.01
14.20
13.24
12.18
11.03
9.81
8.52
7.17
5.77
4.36
2.95
1.57
0.22
-1.15
-2.65
-4.38
-6.43
-8.84
-11.61
-14.68
-17.91
-21.01
-23.54
-24.96
-24.80
-22.84
-19.21
-14.38
-9.01
-3.73
1.02
5.07
8.43
11.18
13.37
15.03
16.09
16.54
16.36
15.66
14.58
13.32
12.09
11.03
10.18
9.46
8.69
7.70
6.38
4.71
2.82
0.88
-0.98
-2.69
-4.34
-6.03
-7.86
-9.93
-12.29
-14.97
-17.90
-20.79
-23.20
-24.54
-24.28
-22.22
-18.51
-13.63
-8.21
-2.78
2.31
6.94
11.04
14.55
17.31
19.17
20.06
20.01
19.23
18.00
16.63
15.38
14.38
13.65
13.05
12.42
11.54
10.33
8.79
7.01
5.16
3.36
1.65
-0.00
-1.71
-3.58
-5.66
-8.01
-10.64
-13.50
-16.47
-19.26
-21.41
-22.39
-21.75
-19.34
-15.35
-10.33
-4.91
0.36
5.14
9.31
12.85
15.75
17.97
19.49
20.28
20.45
20.09
19.34
18.31
17.09
15.78
14.47
13.20
11.95
10.62
9.12
7.42
5.58
3.75
2.08
0.65
-0.62
-1.92
-3.46
-5.43
-7.89
-10.80
-14.02
-17.34
-20.51
-23.18
-24.92
-25.24
-23.81
-20.54
-15.73
-10.00
-4.09
1.33
5.91
9.59
12.49
14.79
16.55
17.70
18.17
17.97
17.27
16.31
15.34
14.48
13.73
13.03
12.28
11.47
10.58
9.59
8.46
7.10
5.47
3.58
1.55
-0.48
-2.39
-4.11
-5.68
-7.23
-8.99
-11.21
-14.08
-17.57
-21.35
-24.78
-27.08
-27.54
-25.82
-22.07
-16.88
-11.03
-5.24
0.02
4.60
8.52
11.89
14.72
16.89
18.27
18.74
18.37
17.35
16.02
14.66
13.50
12.62
11.95
11.38
10.80
10.14
9.38
8.55
7.63
6.63
5.48
4.12
2.50
0.63
-1.42
-3.51
-5.54
-7.49
-9.43
-11.56
-14.06
-17.00
-20.21
-23.27
-25.59
-26.57
-25.83
-23.31
-19.29
-14.30
-8.91
-3.61
1.24
5.45
8.88
11.45
13.12
13.96
14.10
13.78
13.26
12.72
12.26
11.83
11.36
10.78
10.06
9.25
8.44
7.67
6.94
6.14
5.13
3.79
2.12
0.23
-1.61
-3.18
-4.37
-5.31
-6.33
-7.80
-10.01
-12.94
-16.31
-19.57
-22.16
-23.58
-23.52
-21.91
-18.87
-14.70
-9.79
-4.65
0.28
4.63
8.21
11.00
13.11
14.67
15.75
16.33
16.35
15.79
14.77
13.53
12.34
11.39
10.75
10.30
9.88
9.31
8.50
7.45
6.20
4.79
3.29
1.73
0.17
-1.36
-2.83
-4.25
-5.68
-7.23
-9.04
-11.19
-13.68
-16.32
-18.69
-20.25
-20.45
-18.98
-15.90
-11.65
-6.91
-2.33
1.67
4.97
7.68
9.95
11.85
13.36
14.40
14.95
15.08
14.95
14.66
14.25
13.63
12.72
11.51
10.12
8.72
7.48
6.49
5.66
4.84
3.86
2.65
1.22
-0.31
-1.84
-3.32
-4.73
-6.15
-7.71
-9.51
-11.66
-14.15
-16.87
-19.51
-21.66
-22.85
-22.74
-21.21
-18.39
-14.67
-10.45
-6.12
-1.91
2.03
5.58
8.62
10.96
12.46
13.09
12.94
12.29
11.43
10.64
10.05
9.62
9.24
8.77
8.11
7.34
6.58
6.01
5.65
5.40
5.02
4.24
2.95
1.25
-0.61
-2.33
-3.75
-4.92
-6.07
-7.49
-9.40
-11.85
-14.70
-17.67
-20.41
-22.54
-23.71
-23.69
-22.36
-19.83
-16.33
-12.26
-8.06
-4.12
-0.75
1.92
3.89
5.32
6.35
7.13
7.71
8.10
8.24
8.08
7.65
7.00
6.21
5.36
4.50
3.71
3.03
2.51
2.15
1.87
1.50
0.83
-0.29
-1.88
-3.80
-5.76
-7.48
-8.77
-9.71
-10.56
-11.72
-13.54
-16.09
-19.12
-22.05
-24.13
-24.73
-23.51
-20.52
-16.26
-11.35
-6.43
-1.90
2.08
5.55
8.55
11.07
13.00
14.22
14.67
14.45
13.81
13.05
12.43
12.05
11.88
11.75
11.52
11.10
10.48
9.64
8.57
7.26
5.69
3.93
2.08
0.29
-1.38
-2.91
-4.35
-5.78
-7.26
-8.88
-10.78
-13.13
-16.00
-19.19
-22.20
-24.26
-24.65
-22.98
-19.40
-14.51
-9.14
-4.06
0.28
3.75
6.43
8.46
9.91
10.78
11.06
10.78
10.03
9.00
7.89
6.85
6.01
5.41
4.99
4.64
4.22
3.65
2.86
1.88
0.76
-0.45
-1.71
-2.98
-4.23
-5.45
-6.68
-8.03
-9.66
-11.71
-14.22
-16.97
-19.54
-21.30
-21.68
-20.30
-17.15
-12.56
-7.08
-1.30
4.27
9.31
13.61
17.07
19.58
21.11
21.69
21.47
20.69
19.60
18.38
17.10
15.73
14.26
12.68
11.11
9.63
8.31
7.15
6.01
4.76
3.27
1.49
-0.56
-2.77
-5.02
-7.22
-9.30
-11.32
-13.39
-15.68
-18.35
-21.39
-24.56
-27.34
-29.05
-29.05
-27.02
-23.10
-17.85
-12.02
-6.33
-1.21
3.23
7.03
10.26
12.88
14.75
15.77
15.94
15.46
14.62
13.70
12.88
12.20
11.55
10.82
9.91
8.83
7.64
6.42
5.21
3.97
2.62
1.05
-0.77
-2.80
-4.98
-7.24
-9.65
-12.31
-15.35
-18.72
-22.10
-24.94
-26.56
-26.43
-24.35
-20.58
-15.71
-10.46
-5.41
-0.87
3.14
6.70
9.85
12.49
14.43
15.54
15.82
15.46
14.73
13.83
12.79
11.49
9.76
7.50
4.77
1.80
-1.12
-3.75
-6.01
-7.96
-9.74
-11.48
-13.28
-15.22
-17.39
-19.94
-22.97
-26.40
-29.88
-32.76
-34.26
-33.71
-30.82
-25.80
-19.27
-12.03
-4.80
1.94
7.94
13.09
17.29
20.42
22.42
23.32
23.35
22.83
22.07
21.29
20.53
19.69
18.67
17.39
15.82
14.02
12.06
10.04
8.04
6.11
4.28
2.52
0.75
-1.20
-3.52
-6.43
-10.07
-14.40
-19.10
-23.56
-26.96
-28.51
-27.74
-24.63
-19.70
-13.70
-7.43
-1.46
3.96
8.79
13.05
16.72
19.67
21.74
22.83
22.99
22.38
21.29
19.99
18.67
17.43
16.24
15.02
13.72
12.29
10.77
9.17
7.54
5.88
4.19
2.41
0.51
-1.57
-3.89
-6.48
-9.36
-12.44
-15.50
-18.18
-19.97
-20.30
-18.79
-15.32
-10.16
-3.93
2.61
8.77
14.09
18.40
21.75
24.24
25.97
26.99
27.32
27.02
26.21
25.05
23.72
22.39
21.13
19.99
18.92
17.86
16.76
15.60
14.34
12.96
11.41
9.60
7.49
5.08
2.47
-0.24
-2.97
-5.75
-8.72
-12.00
-15.60
-19.27
-22.49
-24.61
-25.00
-23.37
-19.78
-14.72
-8.90
-3.05
2.30
6.88
10.66
13.72
16.11
17.85
18.87
19.21
18.95
18.29
17.42
16.49
15.53
14.53
13.46
12.35
11.29
10.35
9.54
8.76
7.88
6.74
5.28
3.53
1.62
-0.34
-2.22
-4.01
-5.76
-7.64
-9.82
-12.45
-15.46
-18.57
-21.19
-22.64
-22.33
-20.01
-15.90
-10.58
-4.84
0.63
5.36
9.21
12.22
14.54
16.23
17.32
17.78
17.66
17.04
16.10
15.02
13.93
12.86
11.79
10.65
9.43
8.17
6.92
5.72
4.52
3.27
1.91
0.46
-1.02
-2.45
-3.84
-5.29
-6.95
-8.93
-11.24
-13.81
-16.40
-18.74
-20.45
-21.12
-20.46
-18.30
-14.80
-10.39
-5.67
-1.18
2.73
5.98
8.70
11.01
12.95
14.40
15.23
15.36
14.87
13.95
12.84
11.75
10.75
9.87
9.06
8.27
7.46
6.59
5.62
4.56
3.44
2.32
1.27
0.32
-0.58
-1.52
-2.66
-4.13
-6.01
-8.29
-10.84
-13.41
-15.65
-17.15
-17.51
-16.50
-14.13
-10.67
-6.59
-2.43
1.38
4.57
7.07
8.94
10.30
11.21
11.69
11.75
11.42
10.83
10.14
9.49
8.96
8.53
8.14
7.70
7.18
6.62
6.05
5.50
4.96
4.33
3.50
2.39
0.97
-0.67
-2.40
-4.05
-5.47
-6.62
-7.52
-8.34
-9.22
-10.33
-11.74
-13.47
-15.40
-17.31
-18.89
-19.80
-19.76
-18.59
-16.30
-13.13
-9.43
-5.63
-2.10
0.93
3.37
5.25
6.65
7.62
8.20
8.42
8.35
8.07
7.70
7.33
7.02
6.75
6.45
6.06
5.58
5.03
4.50
4.03
3.62
3.24
2.81
2.25
1.53
0.65
-0.32
-1.33
-2.32
-3.31
-4.31
-5.35
-6.46
-7.58
-8.71
-9.82
-11.00
-12.33
-13.92
-15.73
-17.57
-19.08
-19.82
-19.43
-17.80
-15.08
-11.67
-8.03
-4.57
-1.53
1.01
3.09
4.73
5.94
6.72
7.10
7.14
6.93
6.56
6.09
5.52
4.87
4.16
3.43
2.75
2.18
1.73
1.42
1.20
1.02
0.81
0.50
-0.01
-0.75
-1.73
-2.89
-4.17
-5.51
-6.89
-8.29
-9.71
-11.11
-12.49
-13.85
-15.24
-16.73
-18.26
-19.61
-20.37
-20.13
-18.63
-15.92
-12.34
-8.38
-4.52
-1.05
1.94
4.45
6.47
7.93
8.71
8.79
8.29
7.46
6.59
5.89
5.38
4.97
4.51
3.89
3.14
2.36
1.71
1.28
1.09
0.99
0.76
0.13
-1.04
-2.73
-4.74
-6.74
-8.42
-9.62
-10.40
-10.98
-11.68
-12.78
-14.41
-16.57
-19.05
-21.47
-23.40
-24.34
-23.95
-22.09
-18.89
-14.72
-10.06
-5.40
-1.13
2.49
5.35
7.41
8.74
9.46
9.75
9.76
9.63
9.38
9.02
8.52
7.90
7.23
6.59
6.02
5.54
5.11
4.74
4.39
4.07
3.70
3.14
2.24
0.87
-0.95
-3.03
-5.10
-6.91
-8.38
-9.63
-10.93
-12.58
-14.75
-17.40
-20.23
-22.80
-24.56
-25.08
-24.10
-21.63
-17.93
-13.45
-8.66
-4.00
0.25
3.92
6.94
9.27
10.89
11.85
12.27
12.35
12.29
12.24
12.23
12.18
11.96
11.48
10.75
9.88
9.01
8.25
7.60
6.99
6.29
5.38
4.20
2.77
1.19
-0.44
-2.04
-3.62
-5.22
-6.93
-8.82
-10.93
-13.28
-15.87
-18.62
-21.30
-23.54
-24.84
-24.73
-22.93
-19.51
-14.84
-9.47
-3.97
1.25
5.92
9.95
13.28
15.89
17.77
18.92
19.43
19.38
18.94
18.30
17.62
16.97
16.36
15.76
15.12
14.46
13.85
13.34
12.94
12.52
11.90
10.91
9.49
7.71
5.71
3.69
1.77
-0.01
-1.74
-3.59
-5.77
-8.39
-11.44
-14.61
-17.39
-19.16
-19.39
-17.86
-14.71
-10.43
-5.62
-0.85
3.54
7.39
10.68
13.36
15.32
16.50
16.89
16.64
15.99
15.20
14.44
13.75
13.08
12.37
11.59
10.80
10.06
9.37
8.68
7.86
6.80
5.46
3.89
2.21
0.54
-1.01
-2.48
-3.93
-5.46
-7.16
-9.07
-11.25
-13.73
-16.52
-19.47
-22.22
-24.22
-24.86
-23.77
-20.91
-16.67
-11.64
-6.45
-1.54
2.87
6.75
10.08
12.80
14.86
16.21
16.94
17.18
17.08
16.78
16.34
15.77
15.05
14.18
13.16
12.06
11.01
10.11
9.44
8.96
8.49
7.78
6.62
4.96
2.88
0.65
-1.45
-3.24
-4.71
-5.99
-7.35
-9.04
-11.25
-14.04
-17.22
-20.39
-22.94
-24.25
-23.84
-21.54
-17.56
-12.45
-6.87
-1.44
3.43
7.56
10.93
13.58
15.53
16.78
17.37
17.39
16.99
16.36
15.66
14.99
14.32
13.58
12.71
11.75
10.79
9.98
9.42
9.10
8.89
8.56
7.89
6.76
5.17
3.24
1.15
-0.92
-2.83
-4.53
-6.04
-7.50
-9.13
-11.11
-13.60
-16.54
-19.71
-22.68
-24.89
-25.83
-25.14
-22.74
-18.86
-13.97
-8.63
-3.38
1.43
5.62
9.18
12.13
14.48
16.16
17.13
17.37
17.00
16.21
15.28
14.45
13.86
13.51
13.27
12.97
12.45
11.68
10.77
9.89
9.21
8.78
8.47
8.03
7.22
5.87
4.02
1.88
-0.25
-2.17
-3.79
-5.23
-6.69
-8.37
-10.38
-12.72
-15.28
-17.96
-20.60
-23.02
-24.94
-26.01
-25.87
-24.23
-21.07
-16.65
-11.47
-6.12
-1.09
3.30
6.96
9.92
12.28
14.10
15.40
16.17
16.45
16.31
15.90
15.39
14.90
14.48
14.09
13.62
13.00
12.22
11.36
10.51
9.76
9.11
8.48
7.74
6.79
5.62
4.24
2.72
1.10
-0.56
-2.24
-3.91
-5.54
-7.11
-8.65
-10.20
-11.86
-13.76
-16.01
-18.65
-21.52
-24.26
-26.30
-27.04
-26.06
-23.24
-18.89
-13.59
-8.06
-2.91
1.48
5.00
7.71
9.77
11.35
12.56
13.47
14.09
14.39
14.37
14.07
13.55
12.93
12.33
11.79
11.30
10.77
10.17
9.49
8.77
8.10
7.48
6.85
6.11
5.12
3.84
2.30
0.60
-1.16
-2.88
-4.51
-6.03
-7.45
-8.80
-10.17
-11.70
-13.50
-15.69
-18.26
-21.04
-23.67
-25.67
-26.51
-25.80
-23.40
-19.54
-14.75
-9.67
-4.88
-0.72
2.77
5.70
8.21
10.33
12.00
13.16
13.80
14.00
13.93
13.74
13.51
13.24
12.88
12.40
11.80
11.11
10.37
9.63
8.91
8.25
7.63
7.02
6.35
5.52
4.47
3.21
1.75
0.17
-1.49
-3.19
-4.92
-6.64
-8.34
-10.01
-11.69
-13.46
-15.44
-17.71
-20.26
-22.90
-25.26
-26.84
-27.15
-25.86
-22.96
-18.76
-13.81
-8.70
-3.88
0.40
4.09
7.21
9.78
11.74
13.04
13.71
13.85
13.67
13.39
13.16
13.04
12.94
12.74
12.33
11.69
10.88
10.06
9.34
8.77
8.27
7.72
6.99
6.04
4.86
3.50
1.98
0.30
-1.56
-3.54
-5.52
-7.36
-8.95
-10.33
-11.67
-13.23
-15.26
-17.83
-20.79
-23.76
-26.21
-27.56
-27.38
-25.46
-21.89
-17.06
-11.56
-6.03
-1.00
3.23
6.62
9.27
11.38
13.05
14.31
15.13
15.51
15.48
15.15
14.67
14.14
13.66
13.24
12.86
12.46
11.97
11.32
10.52
9.64
8.79
8.06
7.46
6.85
6.02
4.76
3.00
0.80
-1.63
-4.04
-6.26
-8.21
-9.95
-11.56
-13.17
-14.89
-16.84
-19.13
-21.76
-24.56
-27.09
-28.74
-28.92
-27.27
-23.85
-19.11
-13.77
-8.48
-3.63
0.67
4.50
7.95
10.96
13.38
15.04
15.89
16.07
15.85
15.51
15.21
15.00
14.78
14.45
13.96
13.33
12.64
11.99
11.43
10.90
10.28
9.39
8.10
6.38
4.32
2.13
0.00
-1.90
-3.55
-4.98
-6.33
-7.76
-9.41
-11.43
-13.89
-16.74
-19.76
-22.49
-24.36
-24.86
-23.69
-20.89
-16.81
-12.01
-7.02
-2.25
2.07
5.89
9.24
12.10
14.47
16.28
17.52
18.17
18.33
18.12
17.68
17.14
16.55
15.94
15.27
14.54
13.75
12.96
12.20
11.46
10.67
9.75
8.62
7.26
5.72
4.07
2.35
0.56
-1.31
-3.24
-5.17
-7.03
-8.77
-10.48
-12.33
-14.50
-17.09
-19.98
-22.81
-25.06
-26.21
-25.89
-23.98
-20.61
-16.13
-10.99
-5.62
-0.42
4.30
8.36
11.65
14.19
16.02
17.19
17.75
17.75
17.27
16.50
15.69
15.05
14.68
14.50
14.29
13.84
13.04
11.99
10.89
9.96
9.26
8.66
7.90
6.76
5.16
3.21
1.12
-0.90
-2.74
-4.39
-5.93
-7.44
-9.01
-10.75
-12.74
-15.09
-17.83
-20.82
-23.76
-26.15
-27.43
-27.14
-25.07
-21.35
-16.44
-10.95
-5.50
-0.56
3.67
7.17
10.06
12.44
14.35
15.78
16.72
17.19
17.26
17.01
16.56
15.97
15.24
14.39
13.42
12.37
11.37
10.58
10.09
9.91
9.84
9.60
8.88
7.54
5.65
3.45
1.25
-0.78
-2.59
-4.29
-6.01
-7.81
-9.69
-11.67
-13.84
-16.34
-19.24
-22.41
-25.42
-27.62
-28.35
-27.16
-24.08
-19.54
-14.26
-8.97
-4.12
0.12
3.82
7.09
9.95
12.29
13.97
14.94
15.31
15.30
15.12
14.89
14.60
14.17
13.54
12.77
11.97
11.25
10.68
10.23
9.79
9.28
8.62
7.76
6.71
5.43
3.90
2.14
0.22
-1.75
-3.65
-5.40
-7.02
-8.60
-10.30
-12.27
-14.59
-17.28
-20.17
-23.01
-25.35
-26.73
-26.70
-25.02
-21.80
-17.41
-12.44
-7.45
-2.82
1.30
4.93
8.16
10.98
13.29
14.97
15.95
16.28
16.11
15.68
15.20
14.80
14.51
14.27
13.95
13.43
12.63
11.58
10.38
9.19
8.16
7.32
6.53
5.60
4.31
2.60
0.56
-1.59
-3.63
-5.43
-6.99
-8.48
-10.08
-12.00
-14.34
-17.09
-20.06
-22.90
-25.12
-26.23
-25.86
-23.93
-20.59
-16.24
-11.33
-6.29
-1.47
2.87
6.55
9.46
11.55
12.89
13.63
13.97
14.07
14.07
13.96
13.72
13.29
12.66
11.87
10.98
10.10
9.30
8.61
8.01
7.42
6.70
5.74
4.45
2.84
1.01
-0.92
-2.80
-4.57
-6.20
-7.75
-9.33
-11.05
-13.04
-15.40
-18.13
-21.05
-23.80
-25.86
-26.66
-25.81
-23.24
-19.24
-14.36
-9.24
-4.40
-0.09
3.65
6.88
9.65
11.89
13.47
14.34
14.53
14.24
13.75
13.28
12.90
12.53
12.03
11.28
10.28
9.18
8.15
7.34
6.75
6.21
5.51
4.44
2.94
1.09
-0.92
-2.91
-4.75
-6.43
-7.99
-9.57
-11.34
-13.46
-16.01
-18.91
-21.82
-24.23
-25.56
-25.35
-23.43
-19.99
-15.46
-10.38
-5.24
-0.39
3.98
7.76
10.90
13.35
15.06
16.07
16.50
16.58
16.54
16.52
16.52
16.39
15.94
15.07
13.90
12.67
11.67
11.03
10.64
10.21
9.36
7.92
5.90
3.56
1.21
-0.90
-2.70
-4.25
-5.71
-7.31
-9.21
-11.56
-14.38
-17.53
-20.66
-23.23
-24.68
-24.60
-22.89
-19.76
-15.66
-11.05
-6.30
-1.64
2.80
6.85
10.30
12.96
14.73
15.71
16.14
16.32
16.46
16.62
16.67
16.45
15.79
14.68
13.24
11.71
10.31
9.20
8.35
7.57
6.66
5.42
3.84
2.03
0.21
-1.47
-2.97
-4.40
-5.93
-7.76
-9.97
-12.61
-15.61
-18.82
-21.95
-24.55
-26.04
-25.91
-23.92
-20.25
-15.41
-10.10
-4.91
-0.16
4.07
7.84
11.14
13.87
15.88
17.09
17.62
17.65
17.43
17.08
16.62
16.03
15.27
14.40
13.49
12.60
11.71
10.79
9.80
8.75
7.65
6.51
5.31
4.00
2.54
0.96
-0.72
-2.43
-4.18
-6.02
-8.08
-10.48
-13.31
-16.48
-19.72
-22.57
-24.45
-24.85
-23.48
-20.42
-16.10
-11.15
-6.17
-1.56
2.50
6.03
9.05
11.54
13.43
14.67
15.33
15.55
15.55
15.44
15.26
14.95
14.46
13.74
12.84
11.87
10.92
10.09
9.36
8.66
7.85
6.82
5.48
3.86
2.03
0.15
-1.64
-3.27
-4.72
-6.05
-7.37
-8.80
-10.49
-12.51
-14.88
-17.38
-19.64
-21.12
-21.31
-19.91
-16.96
-12.80
-7.97
-2.99
1.77
6.12
10.00
13.34
16.05
18.00
19.16
19.65
19.69
19.55
19.37
19.18
18.85
18.20
17.15
15.75
14.22
12.79
11.66
10.85
10.23
9.55
8.59
7.23
5.54
3.70
1.89
0.25
-1.23
-2.68
-4.23
-6.02
-8.11
-10.55
-13.28
-16.15
-18.87
-21.01
-22.12
-21.88
-20.20
-17.28
-13.56
-9.57
-5.72
-2.24
0.83
3.53
5.92
7.97
9.60
10.75
11.38
11.56
11.42
11.10
10.65
10.08
9.34
8.40
7.33
6.25
5.31
4.57
3.97
3.33
2.42
1.11
-0.56
-2.39
-4.11
-5.55
-6.66
-7.62
-8.72
-10.22
-12.29
-14.83
-17.55
-20.02
-21.79
-22.52
-22.04
-20.39
-17.78
-14.55
-11.10
-7.77
-4.81
-2.35
-0.38
1.23
2.61
3.80
4.76
5.39
5.53
5.16
4.33
3.20
1.99
0.87
-0.06
-0.79
-1.39
-1.97
-2.63
-3.45
-4.47
-5.67
-7.04
-8.50
-10.01
-11.51
-13.02
-14.59
-16.34
-18.39
-20.85
-23.67
-26.63
-29.31
-31.22
-31.87
-30.97
-28.50
-24.67
-19.89
-14.61
-9.20
-3.95
0.96
5.38
9.21
12.34
14.74
16.42
17.45
17.94
18.01
17.71
17.11
16.23
15.11
13.83
12.46
11.11
9.84
8.68
7.58
6.46
5.18
3.69
1.97
0.14
-1.65
-3.27
-4.69
-6.06
-7.63
-9.65
-12.24
-15.25
-18.23
-20.57
-21.68
-21.15
-18.89
-15.10
-10.22
-4.76
0.78
6.00
10.57
14.31
17.13
19.07
20.26
20.89
21.14
21.12
20.86
20.31
19.35
17.92
16.05
13.90
11.71
9.76
8.21
7.05
6.12
5.15
3.96
2.48
0.77
-1.02
-2.79
-4.54
-6.33
-8.27
-10.45
-12.90
-15.54
-18.15
-20.37
-21.68
-21.61
-19.86
-16.47
-11.81
-6.52
-1.24
3.57
7.69
11.09
13.82
15.87
17.20
17.78
17.66
17.02
16.06
15.00
13.95
12.93
11.89
10.83
9.74
8.63
7.51
6.31
4.93
3.28
1.37
-0.71
-2.82
-4.83
-6.72
-8.58
-10.58
-12.91
-15.65
-18.71
-21.80
-24.44
-26.08
-26.23
-24.63
-21.33
-16.70
-11.32
-5.79
-0.59
4.01
7.93
11.20
13.80
15.70
16.86
17.28
17.10
16.53
15.80
15.07
14.42
13.79
13.07
12.19
11.12
9.88
8.56
7.23
5.98
4.86
3.90
3.05
2.22
1.23
-0.13
-2.01
-4.47
-7.47
-10.83
-14.27
-17.39
-19.73
-20.80
-20.20
-17.81
-13.82
-8.76
-3.29
1.95
6.54
10.32
13.30
15.58
17.23
18.27
18.72
18.62
18.12
17.39
16.63
15.96
15.38
14.77
14.00
12.96
11.68
10.29
8.96
7.81
6.82
5.84
4.66
3.13
1.27
-0.75
-2.69
-4.35
-5.71
-6.95
-8.37
-10.23
-12.69
-15.67
-18.91
-22.01
-24.50
-25.89
-25.82
-24.05
-20.63
-15.89
-10.36
-4.63
0.80
5.62
9.71
13.05
15.59
17.28
18.06
18.02
17.37
16.42
15.45
14.65
14.03
13.46
12.79
11.87
10.68
9.34
8.05
7.00
6.30
5.84
5.37
4.61
3.35
1.57
-0.55
-2.73
-4.73
-6.41
-7.86
-9.26
-10.87
-12.89
-15.44
-18.43
-21.65
-24.70
-27.09
-28.30
-27.93
-25.78
-21.94
-16.78
-10.88
-4.86
0.71
5.50
9.34
12.30
14.45
15.89
16.70
16.92
16.66
16.06
15.32
14.61
14.03
13.59
13.20
12.74
12.12
11.29
10.30
9.19
8.06
6.96
5.94
4.99
4.05
3.02
1.81
0.33
-1.42
-3.37
-5.36
-7.28
-9.03
-10.66
-12.32
-14.19
-16.40
-19.00
-21.86
-24.69
-27.05
-28.41
-28.31
-26.45
-22.87
-17.90
-12.16
-6.34
-1.01
3.51
7.14
10.01
12.28
14.03
15.24
15.87
15.91
15.48
14.78
14.02
13.33
12.74
12.18
11.53
10.73
9.77
8.72
7.72
6.87
6.24
5.78
5.36
4.77
3.80
2.36
0.49
-1.61
-3.69
-5.52
-7.04
-8.36
-9.72
-11.36
-13.46
-16.06
-19.06
-22.25
-25.26
-27.65
-28.87
-28.44
-26.10
-21.93
-16.41
-10.26
-4.29
0.92
5.05
8.13
10.36
11.98
13.14
13.86
14.13
13.96
13.44
12.77
12.17
11.81
11.70
11.69
11.55
11.09
10.22
9.04
7.73
6.54
5.63
5.03
4.62
4.17
3.44
2.27
0.61
-1.42
-3.64
-5.84
-7.87
-9.63
-11.18
-12.66
-14.26
-16.23
-18.75
-21.77
-24.98
-27.76
-29.37
-29.15
-26.84
-22.61
-17.07
-10.98
-5.07
0.21
4.65
8.21
10.87
12.61
13.47
13.57
13.19
12.67
12.27
12.12
12.15
12.21
12.09
11.70
11.02
10.15
9.23
8.41
7.81
7.43
7.15
6.72
5.84
4.34
2.24
-0.19
-2.62
-4.73
-6.42
-7.80
-9.13
-10.69
-12.66
-15.10
-17.91
-20.87
-23.68
-25.93
-27.17
-27.01
-25.23
-21.87
-17.23
-11.85
-6.32
-1.15
3.30
6.92
9.75
11.92
13.56
14.71
15.36
15.49
15.16
14.48
13.67
12.91
12.28
11.74
11.21
10.61
9.97
9.33
8.75
8.18
7.48
6.48
5.07
3.29
1.29
-0.71
-2.54
-4.13
-5.55
-6.89
-8.36
-10.12
-12.35
-15.06
-18.12
-21.08
-23.28
-24.01
-22.78
-19.47
-14.48
-8.56
-2.56
2.84
7.31
10.81
13.50
15.56
17.07
18.02
18.41
18.32
17.92
17.42
16.98
16.63
16.26
15.69
14.80
13.59
12.23
10.94
9.86
9.01
8.20
7.13
5.58
3.51
1.11
-1.29
-3.38
-5.01
-6.28
-7.51
-9.10
-11.34
-14.35
-17.91
-21.61
-24.83
-26.96
-27.49
-26.19
-23.12
-18.64
-13.32
-7.75
-2.42
2.32
6.27
9.33
11.43
12.62
13.06
13.01
12.75
12.50
12.34
12.20
11.94
11.48
10.83
10.06
9.23
8.40
7.58
6.75
5.92
5.07
4.14
3.03
1.64
-0.08
-2.04
-4.04
-5.92
-7.58
-9.13
-10.79
-12.82
-15.38
-18.37
-21.47
-24.16
-25.85
-26.07
-24.56
-21.39
-16.91
-11.64
-6.11
-0.78
4.06
8.25
11.75
14.55
16.70
18.21
19.10
19.41
19.25
18.76
18.13
17.48
16.88
16.24
15.48
14.52
13.45
12.41
11.56
10.94
10.43
9.79
8.82
7.40
5.62
3.65
1.71
-0.08
-1.71
-3.27
-4.97
-7.06
-9.71
-12.94
-16.53
-20.04
-22.84
-24.31
-24.03
-21.88
-18.12
-13.27
-7.98
-2.83
1.81
5.80
9.18
12.00
14.27
15.93
16.92
17.26
17.09
16.66
16.18
15.75
15.36
14.88
14.23
13.40
12.45
11.49
10.64
9.95
9.40
8.86
8.14
7.03
5.42
3.35
1.05
-1.18
-3.14
-4.77
-6.21
-7.69
-9.40
-11.44
-13.78
-16.35
-19.04
-21.63
-23.75
-24.89
-24.58
-22.54
-18.86
-13.99
-8.54
-3.09
1.97
6.52
10.51
13.96
16.78
18.87
20.15
20.64
20.48
19.91
19.15
18.36
17.58
16.81
16.02
15.23
14.50
13.89
13.42
13.00
12.48
11.72
10.69
9.41
7.99
6.47
4.82
2.97
0.92
-1.28
-3.49
-5.56
-7.44
-9.18
-10.89
-12.71
-14.73
-17.01
-19.55
-22.25
-24.90
-27.17
-28.63
-28.84
-27.50
-24.56
-20.21
-14.87
-9.08
-3.37
1.81
6.25
9.89
12.82
15.17
17.08
18.60
19.76
20.58
21.10
21.42
21.59
21.64
21.52
21.16
20.54
19.72
18.83
18.06
17.55
17.32
17.27
17.21
16.96
16.41
15.58
14.54
13.37
12.10
10.68
9.06
7.25
5.33
3.46
1.74
0.17
-1.31
-2.86
-4.53
-6.24
-7.77
-8.85
-9.25
-8.92
-8.01
-6.76
-5.42
-4.15
-2.95
-1.72
-0.41
0.97
2.26
3.32
4.05
4.48
4.68
4.73
4.63
4.28
3.62
2.70
1.66
0.74
0.09
-0.28
-0.47
-0.64
-0.89
-1.24
-1.64
-2.10
-2.69
-3.49
-4.52
-5.69
-6.82
-7.76
-8.47
-9.10
-9.84
-10.89
-12.29
-13.91
-15.50
-16.76
-17.46
-17.52
-16.95
-15.87
-14.44
-12.76
-10.89
-8.86
-6.73
-4.60
-2.65
-1.04
0.12
0.79
1.04
0.98
0.75
0.47
0.23
0.11
0.11
0.16
0.15
-0.02
-0.38
-0.88
-1.42
-1.91
-2.32
-2.73
-3.23
-3.86
-4.58
-5.31
-5.91
-6.35
-6.66
-6.92
-7.26
-7.78
-8.51
-9.41
-10.41
-11.40
-12.27
-12.90
-13.18
-12.99
-12.29
-11.08
-9.43
-7.48
-5.42
-3.40
-1.52
0.13
1.53
2.64
3.47
4.01
4.30
4.40
4.37
4.22
3.91
3.37
2.60
1.63
0.59
-0.40
-1.27
-2.04
-2.76
-3.54
-4.43
-5.47
-6.62
-7.84
-9.09
-10.29
-11.40
-12.44
-13.43
-14.43
-15.51
-16.68
-17.92
-19.14
-20.28
-21.30
-22.15
-22.79
-23.12
-23.04
-22.47
-21.43
-19.98
-18.25
-16.36
-14.38
-12.34
-10.26
-8.21
-6.31
-4.68
-3.38
-2.41
-1.66
-1.01
-0.37
0.27
0.83
1.21
1.32
1.20
0.91
0.54
0.15
-0.32
-0.95
-1.82
-2.93
-4.19
-5.51
-6.84
-8.22
-9.74
-11.46
-13.34
-15.24
-16.99
-18.54
-19.98
-21.58
-23.62
-26.21
-29.19
-32.05
-34.09
-34.62
-33.22
-29.84
-24.85
-18.80
-12.30
-5.88
0.13
5.51
10.13
13.95
16.93
19.16
20.77
21.93
22.78
23.45
23.95
24.23
24.21
23.82
23.05
22.03
20.92
19.89
19.00
18.18
17.25
16.04
14.44
12.51
10.37
8.19
6.09
4.11
2.24
0.42
-1.47
-3.56
-6.00
-8.87
-12.10
-15.40
-18.28
-20.15
-20.51
-19.10
-16.00
-11.63
-6.55
-1.34
3.54
7.86
11.54
14.59
17.06
18.94
20.22
20.90
21.04
20.75
20.19
19.54
18.91
18.34
17.79
17.18
16.44
15.55
14.59
13.63
12.71
11.78
10.72
9.40
7.78
5.91
3.93
2.00
0.22
-1.39
-2.96
-4.68
-6.78
-9.43
-12.69
-16.47
-20.42
-24.06
-26.78
-28.05
-27.48
-25.02
-20.88
-15.54
-9.60
-3.63
1.92
6.82
10.99
14.46
17.28
19.45
20.92
21.65
21.73
21.35
20.81
20.33
20.01
19.79
19.50
19.03
18.35
17.54
16.72
15.99
15.30
14.56
13.59
12.28
10.60
8.59
6.36
4.08
1.86
-0.23
-2.14
-3.95
-5.77
-7.77
-10.15
-13.04
-16.42
-20.05
-23.44
-25.97
-27.07
-26.37
-23.84
-19.78
-14.70
-9.14
-3.55
1.76
6.63
10.92
14.51
17.30
19.22
20.32
20.76
20.80
20.66
20.49
20.30
20.01
19.52
18.80
17.90
16.93
16.00
15.19
14.46
13.73
12.89
11.82
10.45
8.79
6.90
4.89
2.91
1.07
-0.62
-2.24
-3.94
-5.87
-8.13
-10.73
-13.60
-16.63
-19.68
-22.52
-24.86
-26.24
-26.24
-24.56
-21.19
-16.46
-10.95
-5.32
-0.06
4.56
8.47
11.69
14.27
16.19
17.44
18.09
18.29
18.22
18.03
17.81
17.55
17.22
16.79
16.24
15.55
14.73
13.82
12.87
11.98
11.21
10.58
9.95
9.12
7.85
6.04
3.75
1.23
-1.23
-3.37
-5.12
-6.60
-8.00
-9.56
-11.45
-13.75
-16.48
-19.60
-22.89
-25.98
-28.34
-29.37
-28.66
-26.13
-22.10
-17.14
-11.94
-7.01
-2.58
1.31
4.75
7.79
10.39
12.43
13.80
14.48
14.56
14.26
13.80
13.37
13.04
12.77
12.46
12.00
11.39
10.69
10.02
9.52
9.20
9.02
8.84
8.50
7.86
6.86
5.52
3.96
2.32
0.72
-0.79
-2.27
-3.81
-5.52
-7.48
-9.69
-12.11
-14.71
-17.46
-20.31
-23.05
-25.28
-26.50
-26.21
-24.14
-20.40
-15.44
-9.89
-4.40
0.58
4.87
8.46
11.44
13.90
15.85
17.27
18.20
18.65
18.71
18.48
18.03
17.47
16.85
16.18
15.45
14.58
13.55
12.35
11.05
9.77
8.61
7.59
6.62
5.53
4.15
2.38
0.28
-1.94
-4.02
-5.77
-7.15
-8.29
-9.42
-10.83
-12.71
-15.16
-18.10
-21.26
-24.20
-26.40
-27.32
-26.55
-24.01
-19.94
-14.90
-9.57
-4.53
-0.13
3.59
6.75
9.51
11.92
13.92
15.37
16.17
16.34
16.02
15.45
14.80
14.18
13.62
13.06
12.50
11.97
11.54
11.25
11.06
10.81
10.30
9.36
7.93
6.09
4.07
2.09
0.36
-1.10
-2.37
-3.62
-5.04
-6.75
-8.82
-11.22
-13.83
-16.42
-18.64
-20.06
-20.26
-18.98
-16.21
-12.25
-7.61
-2.85
1.61
5.57
9.02
12.04
14.61
16.64
17.98
18.57
18.49
17.97
17.25
16.48
15.66
14.74
13.66
12.48
11.30
10.25
9.37
8.61
7.85
6.96
5.90
4.69
3.38
2.01
0.61
-0.82
-2.30
-3.84
-5.41
-6.95
-8.45
-9.92
-11.47
-13.27
-15.46
-18.03
-20.74
-23.13
-24.66
-24.87
-23.56
-20.84
-17.08
-12.76
-8.31
-4.01
-0.01
3.60
6.72
9.21
10.92
11.81
11.93
11.52
10.86
10.21
9.74
9.51
9.46
9.50
9.53
9.45
9.18
8.68
7.92
6.97
5.90
4.76
3.63
2.48
1.30
0.08
-1.16
-2.36
-3.50
-4.60
-5.77
-7.12
-8.74
-10.63
-12.74
-14.94
-17.15
-19.27
-21.13
-22.51
-23.09
-22.60
-20.90
-18.09
-14.46
-10.43
-6.40
-2.65
0.70
3.63
6.17
8.30
9.98
11.11
11.70
11.79
11.57
11.21
10.92
10.77
10.76
10.78
10.67
10.30
9.64
8.73
7.71
6.77
6.01
5.44
4.95
4.33
3.41
2.09
0.45
-1.31
-2.98
-4.43
-5.66
-6.77
-7.96
-9.34
-10.98
-12.86
-14.94
-17.15
-19.39
-21.44
-22.92
-23.41
-22.57
-20.31
-16.86
-12.67
-8.23
-3.98
-0.14
3.16
5.89
8.02
9.53
10.45
10.87
10.89
10.67
10.33
9.98
9.69
9.50
9.39
9.26
8.99
8.48
7.75
6.90
6.08
5.40
4.87
4.36
3.70
2.76
1.49
-0.02
-1.66
-3.29
-4.85
-6.38
-7.95
-9.65
-11.48
-13.39
-15.29
-17.11
-18.82
-20.43
-21.87
-22.93
-23.29
-22.62
-20.71
-17.65
-13.72
-9.42
-5.16
-1.27
2.16
5.11
7.57
9.53
10.90
11.64
11.78
11.49
11.00
10.55
10.26
10.11
9.94
9.58
8.90
7.91
6.77
5.71
4.92
4.45
4.13
3.70
2.90
1.61
-0.10
-2.00
-3.82
-5.39
-6.68
-7.80
-8.93
-10.20
-11.70
-13.51
-15.67
-18.13
-20.72
-23.10
-24.78
-25.29
-24.33
-21.87
-18.19
-13.72
-8.95
-4.34
-0.15
3.45
6.41
8.75
10.51
11.73
12.49
12.87
13.00
13.03
13.07
13.17
13.27
13.22
12.90
12.29
11.43
10.47
9.52
8.65
7.85
7.06
6.21
5.24
4.09
2.74
1.18
-0.54
-2.31
-4.01
-5.54
-6.90
-8.26
-9.82
-11.79
-14.25
-17.11
-20.13
-22.91
-25.04
-26.10
-25.79
-23.97
-20.74
-16.40
-11.43
-6.35
-1.56
2.69
6.34
9.41
11.94
13.91
15.25
15.96
16.12
15.91
15.56
15.24
14.95
14.62
14.09
13.33
12.44
11.58
10.90
10.42
9.99
9.43
8.56
7.36
5.88
4.24
2.51
0.71
-1.10
-2.87
-4.48
-5.88
-7.11
-8.34
-9.81
-11.73
-14.19
-17.10
-20.21
-23.14
-25.45
-26.65
-26.41
-24.51
-21.05
-16.36
-10.99
-5.52
-0.42
4.04
7.78
10.87
13.40
15.37
16.75
17.50
17.62
17.24
16.60
15.92
15.37
14.99
14.70
14.39
13.97
13.40
12.70
11.89
10.98
9.96
8.86
7.70
6.51
5.32
4.07
2.69
1.11
-0.64
-2.48
-4.29
-6.02
-7.72
-9.48
-11.43
-13.64
-16.12
-18.85
-21.71
-24.45
-26.71
-27.98
-27.77
-25.79
-22.13
-17.24
-11.79
-6.48
-1.75
2.21
5.45
8.09
10.21
11.83
12.92
13.49
13.59
13.34
12.90
12.43
12.05
11.84
11.81
11.88
11.94
11.86
11.59
11.19
10.81
10.60
10.61
10.73
10.67
10.13
8.94
7.11
4.89
2.60
0.54
-1.20
-2.71
-4.22
-5.98
-8.09
-10.52
-13.14
-15.69
-17.93
-19.54
-20.20
-19.62
-17.65
-14.34
-9.98
-5.05
-0.06
4.58
8.64
12.06
14.89
17.16
18.89
20.04
20.63
20.74
20.49
20.02
19.45
18.82
18.15
17.41
16.62
15.78
14.94
14.15
13.40
12.65
11.79
10.70
9.29
7.56
5.60
3.55
1.57
-0.26
-1.93
-3.46
-4.91
-6.35
-7.81
-9.36
-11.14
-13.29
-15.91
-18.98
-22.20
-25.08
-27.04
-27.60
-26.55
-24.09
-20.65
-16.76
-12.82
-8.98
-5.21
-1.44
2.25
5.61
8.34
10.21
11.21
11.54
11.55
11.50
11.54
11.65
11.72
11.62
11.28
10.68
9.87
8.90
7.84
6.83
5.96
5.34
4.94
4.65
4.20
3.35
1.97
0.09
-2.04
-4.12
-5.92
-7.43
-8.80
-10.29
-12.13
-14.38
-16.97
-19.66
-22.14
-24.07
-25.13
-25.05
-23.67
-21.03
-17.33
-12.96
-8.31
-3.76
0.43
4.12
7.23
9.71
11.51
12.62
13.11
13.14
12.93
12.70
12.58
12.58
12.59
12.44
12.02
11.29
10.37
9.41
8.54
7.80
7.10
6.31
5.27
3.93
2.31
0.53
-1.28
-2.97
-4.46
-5.73
-6.88
-8.05
-9.46
-11.32
-13.73
-16.62
-19.71
-22.58
-24.73
-25.75
-25.37
-23.57
-20.56
-16.63
-12.12
-7.35
-2.56
2.04
6.23
9.81
12.60
14.53
15.69
16.22
16.34
16.22
15.97
15.67
15.36
15.05
14.73
14.33
13.79
13.07
12.24
11.42
10.71
10.12
9.54
8.78
7.71
6.32
4.76
3.22
1.86
0.70
-0.39
-1.60
-3.08
-4.88
-6.93
-9.03
-10.91
-12.27
-12.84
-12.41
-10.92
-8.49
-5.44
-2.20
0.83
3.35
5.30
6.79
8.01
9.13
10.21
11.20
12.02
12.58
12.90
13.01
12.91
12.62
12.08
11.28
10.24
9.09
8.01
7.15
6.62
6.41
6.44
6.58
6.71
6.72
6.58
6.35
6.12
5.99
6.02
6.15
6.26
6.15
5.66
4.73
3.43
1.92
0.43
-0.79
-1.53
-1.65
-1.10
0.02
1.51
3.13
4.68
6.09
7.38
8.65
9.94
11.19
12.24
12.89
13.07
12.80
12.25
11.66
11.16
10.79
10.43
9.93
9.20
8.24
7.20
6.22
5.38
4.67
3.96
3.07
1.84
0.21
-1.77
-3.89
-5.92
-7.63
-8.92
-9.89
-10.77
-11.86
-13.35
-15.31
-17.57
-19.88
-21.92
-23.47
-24.41
-24.69
-24.31
-23.32
-21.79
-19.87
-17.76
-15.73
-14.02
-12.80
-12.07
-11.72
-11.58
-11.55
-11.57
-11.70
-12.00
-12.50
-13.12
-13.73
-14.22
-14.52
-14.68
-14.80
-14.99
-15.32
-15.78
-16.34
-16.91
-17.46
-18.00
-18.59
-19.25
-20.02
-20.89
-21.85
-22.98
-24.37
-26.08
-28.05
-30.05
-31.71
-32.65
-32.58
-31.34
-28.95
-25.56
-21.39
-16.72
-11.84
-7.03
-2.49
1.63
5.28
8.40
10.95
12.86
14.08
14.63
14.59
14.09
13.29
12.34
11.34
10.40
9.52
8.70
7.84
6.80
5.47
3.84
1.96
-0.04
-2.00
-3.82
-5.49
-7.12
-8.87
-10.91
-13.38
-16.29
-19.51
-22.75
-25.51
-27.23
-27.35
-25.53
-21.74
-16.31
-9.85
-3.05
3.48
9.37
14.48
18.82
22.44
25.38
27.65
29.23
30.14
30.43
30.17
29.46
28.45
27.30
26.20
25.27
24.49
23.76
22.88
21.68
20.08
18.13
15.94
13.64
11.30
8.96
6.63
4.29
1.94
-0.52
-3.25
-6.42
-10.09
-14.11
-18.08
-21.40
-23.45
-23.76
-22.14
-18.74
-13.98
-8.43
-2.64
2.92
7.97
12.35
15.99
18.86
20.93
22.22
22.80
22.79
22.35
21.61
20.67
19.59
18.42
17.27
16.21
15.30
14.50
13.68
12.71
11.46
9.88
8.01
5.92
3.75
1.62
-0.38
-2.29
-4.27
-6.52
-9.26
-12.50
-16.01
-19.39
-22.08
-23.58
-23.56
-21.93
-18.80
-14.49
-9.43
-4.06
1.18
5.97
10.10
13.47
16.07
17.96
19.24
19.98
20.25
20.08
19.48
18.46
17.10
15.52
13.91
12.46
11.27
10.35
9.59
8.84
7.92
6.72
5.21
3.43
1.44
-0.65
-2.79
-4.92
-7.03
-9.17
-11.46
-14.01
-16.83
-19.70
-22.17
-23.58
-23.36
-21.19
-17.22
-12.01
-6.28
-0.71
4.27
8.55
12.20
15.29
17.84
19.80
21.13
21.87
22.10
21.98
21.58
20.94
20.03
18.87
17.54
16.18
14.90
13.79
12.81
11.81
10.65
9.22
7.51
5.61
3.67
1.77
-0.03
-1.79
-3.58
-5.50
-7.62
-9.99
-12.62
-15.50
-18.52
-21.44
-23.80
-25.09
-24.83
-22.79
-19.15
-14.39
-9.21
-4.23
0.17
3.87
6.94
9.47
11.50
12.97
13.85
14.18
14.10
13.81
13.52
13.34
13.22
13.04
12.62
11.89
10.86
9.68
8.52
7.47
6.52
5.58
4.50
3.24
1.79
0.23
-1.38
-3.00
-4.63
-6.29
-8.02
-9.84
-11.82
-14.01
-16.42
-18.93
-21.29
-23.12
-24.04
-23.75
-22.13
-19.34
-15.68
-11.55
-7.32
-3.27
0.46
3.78
6.64
8.95
10.62
11.61
11.96
11.83
11.43
10.99
10.64
10.41
10.23
9.99
9.61
9.09
8.48
7.83
7.15
6.39
5.46
4.25
2.74
1.03
-0.75
-2.42
-3.91
-5.23
-6.46
-7.73
-9.16
-10.82
-12.75
-14.96
-17.39
-19.91
-22.21
-23.90
-24.50
-23.69
-21.36
-17.75
-13.34
-8.69
-4.27
-0.32
3.09
6.00
8.48
10.52
12.08
13.10
13.59
13.58
13.21
12.62
12.01
11.50
11.13
10.83
10.49
9.99
9.28
8.43
7.53
6.64
5.73
4.70
3.44
1.96
0.36
-1.24
-2.72
-4.08
-5.40
-6.80
-8.39
-10.23
-12.34
-14.68
-17.12
-19.43
-21.26
-22.25
-22.10
-20.71
-18.17
-14.79
-10.91
-6.86
-2.89
0.82
4.15
6.95
9.09
10.50
11.21
11.37
11.21
10.95
10.76
10.68
10.64
10.52
10.22
9.72
9.02
8.21
7.31
6.34
5.25
4.01
2.58
1.03
-0.54
-1.97
-3.20
-4.23
-5.22
-6.33
-7.72
-9.46
-11.56
-13.96
-16.59
-19.31
-21.90
-24.00
-25.16
-24.96
-23.19
-19.96
-15.63
-10.78
-5.93
-1.48
2.37
5.59
8.23
10.32
11.86
12.78
13.08
12.85
12.25
11.54
10.90
10.43
10.10
9.76
9.24
8.45
7.45
6.36
5.38
4.62
4.03
3.45
2.61
1.36
-0.32
-2.27
-4.17
-5.78
-6.99
-7.95
-8.92
-10.21
-12.03
-14.43
-17.29
-20.33
-23.20
-25.43
-26.56
-26.21
-24.22
-20.75
-16.22
-11.18
-6.15
-1.49
2.64
6.22
9.25
11.70
13.50
14.63
15.13
15.17
14.93
14.65
14.44
14.33
14.21
13.92
13.27
12.21
10.84
9.41
8.19
7.33
6.81
6.39
5.80
4.84
3.50
1.89
0.18
-1.53
-3.24
-5.03
-6.99
-9.17
-11.56
-14.13
-16.79
-19.42
-21.78
-23.54
-24.29
-23.72
-21.70
-18.40
-14.21
-9.59
-4.94
-0.50
3.59
7.26
10.41
12.90
14.63
15.59
15.92
15.84
15.57
15.22
14.80
14.23
13.42
12.35
11.11
9.87
8.79
7.97
7.41
6.93
6.31
5.30
3.76
1.74
-0.54
-2.79
-4.78
-6.43
-7.81
-9.12
-10.60
-12.47
-14.84
-17.73
-20.95
-24.16
-26.80
-28.27
-28.05
-25.90
-21.98
-16.78
-11.00
-5.28
-0.08
4.41
8.19
11.32
13.82
15.67
16.81
17.24
17.10
16.59
15.96
15.33
14.68
13.91
12.87
11.54
10.03
8.60
7.47
6.71
6.19
5.63
4.70
3.22
1.19
-1.20
-3.67
-5.98
-8.02
-9.85
-11.62
-13.59
-15.94
-18.81
-22.16
-25.79
-29.28
-32.04
-33.46
-33.07
-30.67
-26.45
-20.91
-14.71
-8.47
-2.60
2.68
7.35
11.43
14.90
17.66
19.65
20.87
21.43
21.51
21.34
21.07
20.76
20.40
19.92
19.26
18.39
17.35
16.21
15.04
13.85
12.55
11.01
9.10
6.78
4.16
1.47
-1.03
-3.19
-4.98
-6.61
-8.36
-10.55
-13.37
-16.85
-20.81
-24.83
-28.32
-30.65
-31.26
-29.85
-26.46
-21.43
-15.31
-8.70
-2.09
4.18
9.85
14.70
18.52
21.13
22.52
22.83
22.40
21.65
20.93
20.41
20.07
19.76
19.29
18.52
17.48
16.26
14.98
13.78
12.66
11.56
10.38
8.98
7.28
5.27
3.06
0.79
-1.41
-3.49
-5.52
-7.65
-10.09
-12.94
-16.24
-19.79
-23.26
-26.13
-27.83
-27.87
-25.99
-22.29
-17.19
-11.33
-5.37
0.24
5.29
9.78
13.70
16.99
19.47
20.99
21.55
21.33
20.67
19.89
19.19
18.62
18.12
17.61
17.03
16.39
15.69
14.94
14.13
13.18
12.01
10.48
8.50
6.08
3.35
0.57
-2.01
-4.22
-6.06
-7.72
-9.46
-11.54
-14.11
-17.16
-20.51
-23.81
-26.55
-28.21
-28.33
-26.73
-23.47
-18.94
-13.64
-8.07
-2.61
2.48
7.04
10.95
14.07
16.32
17.68
18.25
18.20
17.72
16.98
16.13
15.23
14.32
13.42
12.51
11.61
10.71
9.82
8.95
8.07
7.13
6.04
4.71
3.07
1.12
-1.09
-3.45
-5.85
-8.21
-10.55
-12.96
-15.61
-18.63
-22.01
-25.55
-28.78
-31.06
-31.77
-30.52
-27.27
-22.42
-16.63
-10.62
-4.91
0.25
4.87
9.06
12.83
16.03
18.40
19.70
19.91
19.30
18.29
17.29
16.52
15.92
15.25
14.28
12.96
11.43
9.92
8.60
7.48
6.35
4.99
3.26
1.20
-1.02
-3.17
-5.06
-6.65
-8.01
-9.31
-10.80
-12.70
-15.21
-18.37
-22.02
-25.78
-29.05
-31.20
-31.69
-30.25
-26.92
-22.04
-16.16
-9.87
-3.67
2.05
7.08
11.31
14.69
17.23
18.94
19.87
20.10
19.75
18.97
17.91
16.72
15.48
14.30
13.23
12.33
11.64
11.15
10.78
10.43
9.92
9.09
7.84
6.17
4.19
2.08
0.02
-1.86
-3.55
-5.13
-6.77
-8.68
-11.04
-13.92
-17.27
-20.83
-24.14
-26.57
-27.53
-26.61
-23.76
-19.33
-13.92
-8.23
-2.80
2.05
6.21
9.71
12.58
14.82
16.44
17.44
17.93
18.02
17.83
17.44
16.85
16.02
14.92
13.53
11.95
10.36
8.95
7.89
7.19
6.69
6.16
5.36
4.16
2.60
0.84
-0.90
-2.47
-3.87
-5.18
-6.56
-8.18
-10.17
-12.59
-15.47
-18.71
-22.06
-25.06
-27.09
-27.52
-25.94
-22.34
-17.16
-11.12
-4.98
0.71
5.74
10.13
13.95
17.19
19.70
21.33
22.09
22.14
21.80
21.33
20.86
20.33
19.62
18.60
17.31
15.89
14.53
13.38
12.47
11.71
10.92
9.91
8.59
6.92
4.96
2.80
0.56
-1.65
-3.75
-5.66
-7.37
-8.94
-10.50
-12.27
-14.44
-17.11
-20.15
-23.20
-25.75
-27.23
-27.21
-25.51
-22.26
-17.84
-12.74
-7.43
-2.29
2.41
6.52
9.94
12.58
14.42
15.47
15.84
15.72
15.34
14.87
14.40
13.92
13.34
12.59
11.66
10.64
9.63
8.69
7.83
6.98
6.04
4.96
3.72
2.34
0.84
-0.79
-2.53
-4.36
-6.24
-8.11
-10.00
-12.03
-14.39
-17.23
-20.53
-24.02
-27.23
-29.57
-30.53
-29.80
-27.37
-23.51
-18.68
-13.36
-7.99
-2.88
1.81
5.96
9.48
12.24
14.18
15.30
15.73
15.68
15.43
15.13
14.86
14.56
14.14
13.54
12.80
11.99
11.25
10.62
10.08
9.50
8.71
7.60
6.17
4.53
2.84
1.24
-0.22
-1.59
-3.00
-4.56
-6.38
-8.53
-11.06
-13.96
-17.14
-20.30
-22.98
-24.61
-24.70
-23.03
-19.77
-15.38
-10.50
-5.69
-1.31
2.49
5.76
8.57
10.98
12.94
14.39
15.27
15.57
15.39
14.87
14.14
13.34
12.52
11.64
10.65
9.49
8.24
7.01
5.97
5.18
4.53
3.78
2.70
1.21
-0.58
-2.43
-4.12
-5.54
-6.80
-8.08
-9.60
-11.46
-13.67
-16.17
-18.88
-21.69
-24.39
-26.59
-27.83
-27.66
-25.79
-22.25
-17.41
-11.86
-6.23
-1.03
3.46
7.15
10.08
12.29
13.85
14.82
15.30
15.47
15.49
15.43
15.28
14.96
14.36
13.51
12.51
11.50
10.58
9.71
8.72
7.43
5.69
3.54
1.14
-1.26
-3.44
-5.27
-6.77
-8.10
-9.46
-11.07
-13.05
-15.44
-18.12
-20.84
-23.24
-24.91
-25.41
-24.47
-22.00
-18.19
-13.47
-8.34
-3.31
1.25
5.18
8.44
11.11
13.27
14.92
16.05
16.62
16.68
16.32
15.72
15.01
14.28
13.55
12.75
11.86
10.92
10.02
9.25
8.58
7.88
6.94
5.59
3.81
1.73
-0.39
-2.32
-3.94
-5.31
-6.63
-8.18
-10.20
-12.81
-15.99
-19.52
-23.02
-26.00
-27.90
-28.28
-26.88
-23.74
-19.24
-13.93
-8.40
-3.13
1.60
5.68
9.09
11.81
13.78
15.02
15.62
15.78
15.72
15.63
15.52
15.29
14.79
13.94
12.79
11.52
10.33
9.33
8.53
7.78
6.92
5.81
4.38
2.67
0.79
-1.16
-3.08
-4.92
-6.67
-8.38
-10.11
-11.98
-14.11
-16.55
-19.26
-22.05
-24.55
-26.26
-26.71
-25.57
-22.77
-18.54
-13.36
-7.83
-2.45
2.40
6.58
10.08
12.93
15.16
16.76
17.76
18.23
18.28
18.05
17.63
17.04
16.26
15.28
14.19
13.11
12.18
11.45
10.90
10.37
9.66
8.60
7.06
5.03
2.62
0.07
-2.34
-4.39
-6.01
-7.34
-8.71
-10.47
-12.90
-16.00
-19.53
-22.96
-25.63
-26.94
-26.48
-24.17
-20.29
-15.40
-10.16
-5.10
-0.54
3.42
6.79
9.59
11.77
13.29
14.15
14.48
14.47
14.33
14.18
14.00
13.73
13.28
12.66
11.97
11.34
10.90
10.66
10.51
10.26
9.72
8.75
7.37
5.65
3.80
1.95
0.21
-1.39
-2.94
-4.53
-6.31
-8.36
-10.76
-13.50
-16.45
-19.41
-22.01
-23.81
-24.36
-23.38
-20.85
-17.05
-12.49
-7.77
-3.36
0.49
3.71
6.37
8.56
10.31
11.59
12.40
12.72
12.65
12.28
11.67
10.89
9.97
8.95
7.88
6.85
5.92
5.12
4.40
3.66
2.80
1.73
0.46
-0.95
-2.39
-3.76
-5.03
-6.25
-7.52
-8.99
-10.77
-12.95
-15.54
-18.39
-21.18
-23.42
-24.56
-24.13
-21.93
-18.11
-13.13
-7.60
-2.08
3.03
7.55
11.40
14.52
16.83
18.26
18.87
18.84
18.47
18.03
17.67
17.40
17.10
16.66
16.03
15.27
14.48
13.72
13.00
12.27
11.38
10.24
8.77
7.00
5.02
2.98
1.00
-0.86
-2.62
-4.40
-6.36
-8.60
-11.22
-14.18
-17.41
-20.70
-23.72
-26.08
-27.34
-27.10
-25.21
-21.78
-17.20
-12.00
-6.72
-1.74
2.73
6.64
9.98
12.70
14.75
16.08
16.74
16.92
16.86
16.78
16.72
16.58
16.11
15.15
13.65
11.80
9.90
8.25
7.00
6.07
5.20
4.10
2.59
0.66
-1.54
-3.79
-5.93
-7.91
-9.78
-11.64
-13.60
-15.78
-18.25
-21.00
-23.89
-26.58
-28.56
-29.29
-28.39
-25.76
-21.67
-16.63
-11.25
-5.99
-1.13
3.26
7.21
10.65
13.46
15.44
16.47
16.63
16.15
15.39
14.64
14.05
13.53
12.94
12.18
11.25
10.31
9.51
8.91
8.38
7.67
6.55
4.90
2.83
0.57
-1.63
-3.61
-5.39
-7.13
-9.05
-11.30
-13.94
-16.89
-19.91
-22.66
-24.74
-25.71
-25.25
-23.16
-19.53
-14.72
-9.28
-3.80
1.21
5.48
8.95
11.66
13.70
15.06
15.74
15.78
15.32
14.62
13.91
13.36
12.95
12.56
12.05
11.33
10.41
9.34
8.18
6.95
5.65
4.25
2.72
1.05
-0.79
-2.78
-4.89
-7.08
-9.34
-11.71
-14.28
-17.10
-20.06
-22.86
-25.00
-25.90
-25.14
-22.55
-18.32
-12.92
-6.99
-1.11
4.26
8.89
12.74
15.86
18.26
19.97
20.92
21.13
20.68
19.76
18.60
17.38
16.23
15.15
14.14
13.19
12.26
11.34
10.36
9.21
7.81
6.13
4.21
2.17
0.16
-1.68
-3.30
-4.77
-6.23
-7.93
-10.08
-12.79
-15.96
-19.22
-21.96
-23.51
-23.33
-21.19
-17.30
-12.20
-6.61
-1.19
3.60
7.56
10.68
13.04
14.71
15.73
16.13
16.00
15.47
14.70
13.81
12.85
11.78
10.53
9.11
7.60
6.19
5.07
4.34
3.91
3.57
3.04
2.12
0.72
-1.10
-3.21
-5.47
-7.78
-10.06
-12.32
-14.61
-17.04
-19.74
-22.78
-26.05
-29.25
-31.85
-33.24
-32.93
-30.70
-26.73
-21.46
-15.48
-9.37
-3.55
1.71
6.25
9.95
12.76
14.69
15.86
16.45
16.72
16.84
16.91
16.92
16.78
16.45
15.88
15.14
14.33
13.55
12.87
12.24
11.54
10.64
9.42
7.86
6.05
4.11
2.19
0.35
-1.37
-3.02
-4.65
-6.40
-8.46
-10.99
-14.11
-17.70
-21.35
-24.43
-26.21
-26.11
-23.94
-19.93
-14.68
-8.91
-3.30
1.74
6.05
9.66
12.63
15.00
16.77
17.87
18.32
18.22
17.71
17.00
16.23
15.48
14.75
14.02
13.23
12.40
11.55
10.72
9.92
9.05
7.98
6.57
4.77
2.64
0.39
-1.81
-3.81
-5.61
-7.30
-9.04
-11.00
-13.27
-15.90
-18.79
-21.68
-24.13
-25.60
-25.60
-23.86
-20.39
-15.55
-9.90
-4.03
1.54
6.48
10.61
13.86
16.24
17.82
18.70
19.01
18.88
18.42
17.70
16.78
15.69
14.48
13.21
11.97
10.84
9.88
9.09
8.37
7.58
6.58
5.30
3.79
2.16
0.52
-1.10
-2.74
-4.49
-6.45
-8.69
-11.25
-14.15
-17.33
-20.56
-23.43
-25.33
-25.65
-23.98
-20.33
-15.14
-9.13
-3.08
2.47
7.24
11.22
14.48
17.09
18.99
20.09
20.35
19.86
18.88
17.73
16.70
15.90
15.26
14.59
13.68
12.47
11.08
9.73
8.59
7.67
6.75
5.52
3.76
1.52
-0.94
-3.25
-5.17
-6.66
-7.93
-9.29
-11.01
-13.28
-16.11
-19.39
-22.89
-26.20
-28.85
-30.26
-30.02
-27.99
-24.32
-19.50
-14.10
-8.69
-3.67
0.74
4.47
7.55
10.04
11.98
13.38
14.27
14.70
14.77
14.61
14.33
13.92
13.30
12.34
11.01
9.47
7.98
6.80
6.03
5.53
5.03
4.21
2.92
1.20
-0.75
-2.73
-4.56
-6.25
-7.83
-9.44
-11.19
-13.23
-15.67
-18.57
-21.86
-25.24
-28.22
-30.18
-30.58
-29.09
-25.74
-20.91
-15.20
-9.23
-3.49
1.75
6.35
10.31
13.58
16.09
17.74
18.54
18.59
18.10
17.40
16.73
16.22
15.86
15.50
14.98
14.20
13.20
12.09
11.03
10.12
9.35
8.56
7.56
6.15
4.28
2.03
-0.36
-2.65
-4.62
-6.22
-7.56
-8.87
-10.45
-12.53
-15.25
-18.58
-22.31
-26.03
-29.17
-31.09
-31.26
-29.37
-25.49
-20.06
-13.78
-7.41
-1.55
3.50
7.68
11.09
13.85
15.98
17.47
18.29
18.53
18.33
17.87
17.28
16.65
15.96
15.21
14.37
13.47
12.59
11.81
11.19
10.68
10.15
9.42
8.28
6.62
4.45
1.94
-0.67
-3.14
-5.32
-7.20
-8.82
-10.32
-11.88
-13.72
-16.07
-19.05
-22.60
-26.33
-29.62
-31.73
-32.06
-30.34
-26.71
-21.64
-15.82
-9.90
-4.33
0.62
4.90
8.57
11.69
14.27
16.28
17.64
18.31
18.36
17.96
17.33
16.66
16.04
15.43
14.72
13.80
12.72
11.62
10.66
9.95
9.40
8.80
7.88
6.48
4.58
2.35
-0.00
-2.29
-4.44
-6.47
-8.42
-10.35
-12.30
-14.34
-16.61
-19.24
-22.27
-25.52
-28.54
-30.66
-31.21
-29.71
-26.14
-20.91
-14.76
-8.49
-2.68
2.41
6.78
10.55
13.75
16.31
18.08
19.01
19.21
18.95
18.55
18.21
17.99
17.79
17.48
16.97
16.22
15.26
14.14
12.91
11.63
10.39
9.21
8.10
6.97
5.73
4.25
2.51
0.51
-1.64
-3.85
-6.04
-8.16
-10.21
-12.26
-14.42
-16.87
-19.74
-23.02
-26.45
-29.49
-31.48
-31.82
-30.20
-26.70
-21.75
-15.90
-9.72
-3.64
2.08
7.21
11.58
15.04
17.53
19.08
19.88
20.18
20.17
20.00
19.69
19.21
18.52
17.63
16.59
15.48
14.34
13.17
11.98
10.74
9.47
8.20
6.90
5.52
3.95
2.10
-0.02
-2.29
-4.52
-6.56
-8.40
-10.18
-12.16
-14.63
-17.69
-21.19
-24.67
-27.48
-28.91
-28.45
-25.93
-21.63
-16.11
-10.09
-4.17
1.24
5.97
10.01
13.37
16.04
18.03
19.35
20.09
20.40
20.42
20.23
19.85
19.24
18.38
17.29
16.05
14.79
13.66
12.72
11.95
11.24
10.41
9.27
7.72
5.76
3.51
1.17
-1.09
