2022-09-20 12:23:44.000000,-0.0
2022-09-20 12:23:44.015625,-0.0
2022-09-20 12:23:44.031250,-0.0
2022-09-20 12:23:44.046875,-0.0
2022-09-20 12:23:44.062500,-0.0
2022-09-20 12:23:44.078125,-0.0
2022-09-20 12:23:44.093750,-0.0
2022-09-20 12:23:44.109375,-0.0
2022-09-20 12:23:44.125000,-0.0
2022-09-20 12:23:44.140625,-0.0
2022-09-20 12:23:44.156250,0.0
2022-09-20 12:23:44.171875,0.01
2022-09-20 12:23:44.187500,0.01
2022-09-20 12:23:44.203125,-0.0
2022-09-20 12:23:44.218750,-0.03
2022-09-20 12:23:44.234375,-0.05
2022-09-20 12:23:44.250000,-0.05
2022-09-20 12:23:44.265625,0.0
2022-09-20 12:23:44.281250,0.13
2022-09-20 12:23:44.296875,0.36
2022-09-20 12:23:44.312500,0.66
2022-09-20 12:23:44.328125,1.01
2022-09-20 12:23:44.343750,1.37
2022-09-20 12:23:44.359375,1.72
2022-09-20 12:23:44.375000,2.06
2022-09-20 12:23:44.390625,2.4
2022-09-20 12:23:44.406250,2.79
2022-09-20 12:23:44.421875,3.24
2022-09-20 12:23:44.437500,3.8
2022-09-20 12:23:44.453125,4.42
2022-09-20 12:23:44.468750,5.06
2022-09-20 12:23:44.484375,5.66
2022-09-20 12:23:44.500000,6.2
2022-09-20 12:23:44.515625,6.68
2022-09-20 12:23:44.531250,7.15
2022-09-20 12:23:44.546875,7.68
2022-09-20 12:23:44.562500,8.31
2022-09-20 12:23:44.578125,9.14
2022-09-20 12:23:44.593750,10.09
2022-09-20 12:23:44.609375,11.04
2022-09-20 12:23:44.625000,11.88
2022-09-20 12:23:44.640625,12.56
2022-09-20 12:23:44.656250,13.14
2022-09-20 12:23:44.671875,13.76
2022-09-20 12:23:44.687500,14.65
2022-09-20 12:23:44.703125,15.96
2022-09-20 12:23:44.718750,17.91
2022-09-20 12:23:44.734375,20.32
2022-09-20 12:23:44.750000,22.91
2022-09-20 12:23:44.765625,25.38
2022-09-20 12:23:44.781250,27.58
2022-09-20 12:23:44.796875,29.57
2022-09-20 12:23:44.812500,31.67
2022-09-20 12:23:44.828125,34.31
2022-09-20 12:23:44.843750,37.81
2022-09-20 12:23:44.859375,42.54
2022-09-20 12:23:44.875000,48.16
2022-09-20 12:23:44.890625,54.14
2022-09-20 12:23:44.906250,59.89
2022-09-20 12:23:44.921875,65.02
2022-09-20 12:23:44.937500,69.57
2022-09-20 12:23:44.953125,74.02
2022-09-20 12:23:44.968750,79.07
2022-09-20 12:23:44.984375,85.26
2022-09-20 12:23:45.000000,93.17
2022-09-20 12:23:45.015625,102.31
2022-09-20 12:23:45.031250,111.89
2022-09-20 12:23:45.046875,120.99
2022-09-20 12:23:45.062500,129.03
2022-09-20 12:23:45.078125,135.97
2022-09-20 12:23:45.093750,142.44
2022-09-20 12:23:45.109375,149.75
2022-09-20 12:23:45.125000,156.64
2022-09-20 12:23:45.140625,165.39
2022-09-20 12:23:45.156250,176.65
2022-09-20 12:23:45.171875,190.51
2022-09-20 12:23:45.187500,205.73
2022-09-20 12:23:45.203125,219.33
2022-09-20 12:23:45.218750,226.91
2022-09-20 12:23:45.234375,223.79
2022-09-20 12:23:45.250000,206.61
2022-09-20 12:23:45.265625,174.58
2022-09-20 12:23:45.281250,130.19
2022-09-20 12:23:45.296875,77.35
2022-09-20 12:23:45.312500,20.4
2022-09-20 12:23:45.328125,-37.53
2022-09-20 12:23:45.343750,-95.06
2022-09-20 12:23:45.359375,-152.09
2022-09-20 12:23:45.375000,-208.84
2022-09-20 12:23:45.390625,-264.94
2022-09-20 12:23:45.406250,-319.36
2022-09-20 12:23:45.421875,-370.34
2022-09-20 12:23:45.437500,-416.76
2022-09-20 12:23:45.453125,-457.89
2022-09-20 12:23:45.468750,-493.35
2022-09-20 12:23:45.484375,-522.63
2022-09-20 12:23:45.500000,-544.7
2022-09-20 12:23:45.515625,-557.99
2022-09-20 12:23:45.531250,-560.62
2022-09-20 12:23:45.546875,-551.09
2022-09-20 12:23:45.562500,-528.67
2022-09-20 12:23:45.578125,-494.14
2022-09-20 12:23:45.593750,-449.58
2022-09-20 12:23:45.609375,-397.96
2022-09-20 12:23:45.625000,-342.52
2022-09-20 12:23:45.640625,-286.13
2022-09-20 12:23:45.656250,-230.81
2022-09-20 12:23:45.671875,-177.66
2022-09-20 12:23:45.687500,-127.1
2022-09-20 12:23:45.703125,-79.26
2022-09-20 12:23:45.718750,-34.56
2022-09-20 12:23:45.734375,6.27
2022-09-20 12:23:45.750000,42.27
2022-09-20 12:23:45.765625,72.54
2022-09-20 12:23:45.781250,96.52
2022-09-20 12:23:45.796875,114.05
2022-09-20 12:23:45.812500,125.31
2022-09-20 12:23:45.828125,130.82
2022-09-20 12:23:45.843750,131.75
2022-09-20 12:23:45.859375,130.1
2022-09-20 12:23:45.875000,128.79
2022-09-20 12:23:45.890625,131.01
2022-09-20 12:23:45.906250,139.15
2022-09-20 12:23:45.921875,153.68
2022-09-20 12:23:45.937500,172.66
2022-09-20 12:23:45.953125,192.43
2022-09-20 12:23:45.968750,208.89
2022-09-20 12:23:45.984375,219.05
2022-09-20 12:23:46.000000,221.92
2022-09-20 12:23:46.015625,218.33
2022-09-20 12:23:46.031250,210.09
2022-09-20 12:23:46.046875,198.93
2022-09-20 12:23:46.062500,186.02
2022-09-20 12:23:46.078125,171.99
2022-09-20 12:23:46.093750,157.37
2022-09-20 12:23:46.109375,142.87
2022-09-20 12:23:46.125000,129.33
2022-09-20 12:23:46.140625,117.35
2022-09-20 12:23:46.156250,107.06
2022-09-20 12:23:46.171875,98.02
2022-09-20 12:23:46.187500,89.5
2022-09-20 12:23:46.203125,80.75
2022-09-20 12:23:46.218750,71.46
2022-09-20 12:23:46.234375,61.85
2022-09-20 12:23:46.250000,52.56
2022-09-20 12:23:46.265625,44.5
2022-09-20 12:23:46.281250,38.18
2022-09-20 12:23:46.296875,33.7
2022-09-20 12:23:46.312500,30.68
2022-09-20 12:23:46.328125,28.42
2022-09-20 12:23:46.343750,26.13
2022-09-20 12:23:46.359375,23.29
2022-09-20 12:23:46.375000,19.77
2022-09-20 12:23:46.390625,15.86
2022-09-20 12:23:46.406250,12.05
2022-09-20 12:23:46.421875,8.81
2022-09-20 12:23:46.437500,6.32
2022-09-20 12:23:46.453125,4.46
2022-09-20 12:23:46.468750,2.91
2022-09-20 12:23:46.484375,1.31
2022-09-20 12:23:46.500000,-0.5
2022-09-20 12:23:46.515625,-2.44
2022-09-20 12:23:46.531250,-4.22
2022-09-20 12:23:46.546875,-5.59
2022-09-20 12:23:46.562500,-6.41
2022-09-20 12:23:46.578125,-6.66
2022-09-20 12:23:46.593750,-6.51
2022-09-20 12:23:46.609375,-6.19
2022-09-20 12:23:46.625000,-5.89
2022-09-20 12:23:46.640625,-5.74
2022-09-20 12:23:46.656250,-5.79
2022-09-20 12:23:46.671875,-5.99
2022-09-20 12:23:46.687500,-6.23
2022-09-20 12:23:46.703125,-6.49
2022-09-20 12:23:46.718750,-6.72
2022-09-20 12:23:46.734375,-6.93
2022-09-20 12:23:46.750000,-7.1
2022-09-20 12:23:46.765625,-7.14
2022-09-20 12:23:46.781250,-6.95
2022-09-20 12:23:46.796875,-6.45
2022-09-20 12:23:46.812500,-5.69
2022-09-20 12:23:46.828125,-4.84
2022-09-20 12:23:46.843750,-4.16
2022-09-20 12:23:46.859375,-3.84
2022-09-20 12:23:46.875000,-3.96
2022-09-20 12:23:46.890625,-4.42
2022-09-20 12:23:46.906250,-5.06
2022-09-20 12:23:46.921875,-5.67
2022-09-20 12:23:46.937500,-6.06
2022-09-20 12:23:46.953125,-6.07
2022-09-20 12:23:46.968750,-5.58
2022-09-20 12:23:46.984375,-4.56
2022-09-20 12:23:47.000000,-3.09
2022-09-20 12:23:47.015625,-1.39
2022-09-20 12:23:47.031250,0.23
2022-09-20 12:23:47.046875,1.45
2022-09-20 12:23:47.062500,2.1
2022-09-20 12:23:47.078125,2.13
2022-09-20 12:23:47.093750,1.67
2022-09-20 12:23:47.109375,0.94
2022-09-20 12:23:47.125000,0.17
2022-09-20 12:23:47.140625,-0.46
2022-09-20 12:23:47.156250,-0.85
2022-09-20 12:23:47.171875,-1.0
2022-09-20 12:23:47.187500,-0.97
2022-09-20 12:23:47.203125,-0.87
2022-09-20 12:23:47.218750,-0.81
2022-09-20 12:23:47.234375,-0.84
2022-09-20 12:23:47.250000,-0.94
2022-09-20 12:23:47.265625,-1.04
2022-09-20 12:23:47.281250,-1.06
2022-09-20 12:23:47.296875,-0.94
2022-09-20 12:23:47.312500,-0.71
2022-09-20 12:23:47.328125,-0.41
2022-09-20 12:23:47.343750,-0.12
2022-09-20 12:23:47.359375,0.12
2022-09-20 12:23:47.375000,0.28
2022-09-20 12:23:47.390625,0.33
2022-09-20 12:23:47.406250,0.3
2022-09-20 12:23:47.421875,0.2
2022-09-20 12:23:47.437500,0.08
2022-09-20 12:23:47.453125,0.02
2022-09-20 12:23:47.468750,0.08
2022-09-20 12:23:47.484375,0.28
2022-09-20 12:23:47.500000,0.63
2022-09-20 12:23:47.515625,1.11
2022-09-20 12:23:47.531250,1.7
2022-09-20 12:23:47.546875,2.38
2022-09-20 12:23:47.562500,3.14
2022-09-20 12:23:47.578125,4.0
2022-09-20 12:23:47.593750,4.95
2022-09-20 12:23:47.609375,5.98
2022-09-20 12:23:47.625000,7.03
2022-09-20 12:23:47.640625,7.98
2022-09-20 12:23:47.656250,8.7
2022-09-20 12:23:47.671875,8.99
2022-09-20 12:23:47.687500,8.71
2022-09-20 12:23:47.703125,7.83
2022-09-20 12:23:47.718750,6.34
2022-09-20 12:23:47.734375,4.39
2022-09-20 12:23:47.750000,2.22
2022-09-20 12:23:47.765625,0.03
2022-09-20 12:23:47.781250,-2.06
2022-09-20 12:23:47.796875,-3.99
2022-09-20 12:23:47.812500,-5.72
2022-09-20 12:23:47.828125,-7.17
2022-09-20 12:23:47.843750,-8.21
2022-09-20 12:23:47.859375,-8.8
2022-09-20 12:23:47.875000,-8.94
2022-09-20 12:23:47.890625,-8.8
2022-09-20 12:23:47.906250,-8.61
2022-09-20 12:23:47.921875,-8.51
2022-09-20 12:23:47.937500,-8.53
2022-09-20 12:23:47.953125,-8.55
2022-09-20 12:23:47.968750,-8.4
2022-09-20 12:23:47.984375,-7.99
2022-09-20 12:23:48.000000,-7.42
2022-09-20 12:23:48.015625,-6.85
2022-09-20 12:23:48.031250,-6.43
2022-09-20 12:23:48.046875,-6.21
2022-09-20 12:23:48.062500,-6.13
2022-09-20 12:23:48.078125,-6.04
2022-09-20 12:23:48.093750,-5.85
2022-09-20 12:23:48.109375,-5.53
2022-09-20 12:23:48.125000,-5.17
2022-09-20 12:23:48.140625,-4.87
2022-09-20 12:23:48.156250,-4.69
2022-09-20 12:23:48.171875,-4.63
2022-09-20 12:23:48.187500,-4.61
2022-09-20 12:23:48.203125,-4.54
2022-09-20 12:23:48.218750,-4.29
2022-09-20 12:23:48.234375,-3.78
2022-09-20 12:23:48.250000,-2.93
2022-09-20 12:23:48.265625,-1.75
2022-09-20 12:23:48.281250,-0.3
2022-09-20 12:23:48.296875,1.3
2022-09-20 12:23:48.312500,2.88
2022-09-20 12:23:48.328125,4.31
2022-09-20 12:23:48.343750,5.44
2022-09-20 12:23:48.359375,6.2
2022-09-20 12:23:48.375000,6.53
2022-09-20 12:23:48.390625,6.44
2022-09-20 12:23:48.406250,5.98
2022-09-20 12:23:48.421875,5.26
2022-09-20 12:23:48.437500,4.4
2022-09-20 12:23:48.453125,3.55
2022-09-20 12:23:48.468750,2.81
2022-09-20 12:23:48.484375,2.2
2022-09-20 12:23:48.500000,1.7
2022-09-20 12:23:48.515625,1.25
2022-09-20 12:23:48.531250,0.79
2022-09-20 12:23:48.546875,0.33
2022-09-20 12:23:48.562500,-0.08
2022-09-20 12:23:48.578125,-0.33
2022-09-20 12:23:48.593750,-0.38
2022-09-20 12:23:48.609375,-0.27
2022-09-20 12:23:48.625000,-0.1
2022-09-20 12:23:48.640625,-0.04
2022-09-20 12:23:48.656250,-0.19
2022-09-20 12:23:48.671875,-0.59
2022-09-20 12:23:48.687500,-1.21
2022-09-20 12:23:48.703125,-1.94
2022-09-20 12:23:48.718750,-2.66
2022-09-20 12:23:48.734375,-3.29
2022-09-20 12:23:48.750000,-3.82
2022-09-20 12:23:48.765625,-4.28
2022-09-20 12:23:48.781250,-4.72
2022-09-20 12:23:48.796875,-5.22
2022-09-20 12:23:48.812500,-5.83
2022-09-20 12:23:48.828125,-6.6
2022-09-20 12:23:48.843750,-7.54
2022-09-20 12:23:48.859375,-8.62
2022-09-20 12:23:48.875000,-9.71
2022-09-20 12:23:48.890625,-10.63
2022-09-20 12:23:48.906250,-11.16
2022-09-20 12:23:48.921875,-11.12
2022-09-20 12:23:48.937500,-10.39
2022-09-20 12:23:48.953125,-9.0
2022-09-20 12:23:48.968750,-7.08
2022-09-20 12:23:48.984375,-4.84
2022-09-20 12:23:49.000000,-2.5
2022-09-20 12:23:49.015625,-0.24
2022-09-20 12:23:49.031250,1.79
2022-09-20 12:23:49.046875,3.51
2022-09-20 12:23:49.062500,4.86
2022-09-20 12:23:49.078125,5.83
2022-09-20 12:23:49.093750,6.44
2022-09-20 12:23:49.109375,6.75
2022-09-20 12:23:49.125000,6.83
2022-09-20 12:23:49.140625,6.77
2022-09-20 12:23:49.156250,6.61
2022-09-20 12:23:49.171875,6.34
2022-09-20 12:23:49.187500,5.92
2022-09-20 12:23:49.203125,5.33
2022-09-20 12:23:49.218750,4.57
2022-09-20 12:23:49.234375,3.75
2022-09-20 12:23:49.250000,3.02
2022-09-20 12:23:49.265625,2.51
2022-09-20 12:23:49.281250,2.27
2022-09-20 12:23:49.296875,2.24
2022-09-20 12:23:49.312500,2.26
2022-09-20 12:23:49.328125,2.14
2022-09-20 12:23:49.343750,1.76
2022-09-20 12:23:49.359375,1.1
2022-09-20 12:23:49.375000,0.26
2022-09-20 12:23:49.390625,-0.65
2022-09-20 12:23:49.406250,-1.51
2022-09-20 12:23:49.421875,-2.31
2022-09-20 12:23:49.437500,-3.07
2022-09-20 12:23:49.453125,-3.88
2022-09-20 12:23:49.468750,-4.79
2022-09-20 12:23:49.484375,-5.82
2022-09-20 12:23:49.500000,-6.98
2022-09-20 12:23:49.515625,-8.21
2022-09-20 12:23:49.531250,-9.4
2022-09-20 12:23:49.546875,-10.42
2022-09-20 12:23:49.562500,-11.09
2022-09-20 12:23:49.578125,-11.22
2022-09-20 12:23:49.593750,-10.65
2022-09-20 12:23:49.609375,-9.33
2022-09-20 12:23:49.625000,-7.34
2022-09-20 12:23:49.640625,-4.9
2022-09-20 12:23:49.656250,-2.36
2022-09-20 12:23:49.671875,-0.05
2022-09-20 12:23:49.687500,1.77
2022-09-20 12:23:49.703125,3.0
2022-09-20 12:23:49.718750,3.74
2022-09-20 12:23:49.734375,4.14
2022-09-20 12:23:49.750000,4.36
2022-09-20 12:23:49.765625,4.49
2022-09-20 12:23:49.781250,4.53
2022-09-20 12:23:49.796875,4.43
2022-09-20 12:23:49.812500,4.14
2022-09-20 12:23:49.828125,3.66
2022-09-20 12:23:49.843750,3.03
2022-09-20 12:23:49.859375,2.3
2022-09-20 12:23:49.875000,1.51
2022-09-20 12:23:49.890625,0.66
2022-09-20 12:23:49.906250,-0.25
2022-09-20 12:23:49.921875,-1.18
2022-09-20 12:23:49.937500,-2.11
2022-09-20 12:23:49.953125,-3.02
2022-09-20 12:23:49.968750,-3.92
2022-09-20 12:23:49.984375,-4.84
2022-09-20 12:23:50.000000,-5.82
2022-09-20 12:23:50.015625,-6.91
2022-09-20 12:23:50.031250,-8.1
2022-09-20 12:23:50.046875,-9.37
2022-09-20 12:23:50.062500,-10.69
2022-09-20 12:23:50.078125,-12.02
2022-09-20 12:23:50.093750,-13.35
2022-09-20 12:23:50.109375,-14.69
2022-09-20 12:23:50.125000,-16.07
2022-09-20 12:23:50.140625,-17.51
2022-09-20 12:23:50.156250,-18.9
2022-09-20 12:23:50.171875,-20.05
2022-09-20 12:23:50.187500,-20.61
2022-09-20 12:23:50.203125,-20.21
2022-09-20 12:23:50.218750,-18.55
2022-09-20 12:23:50.234375,-15.54
2022-09-20 12:23:50.250000,-11.35
2022-09-20 12:23:50.265625,-6.34
2022-09-20 12:23:50.281250,-0.99
2022-09-20 12:23:50.296875,4.24
2022-09-20 12:23:50.312500,9.06
2022-09-20 12:23:50.328125,13.26
2022-09-20 12:23:50.343750,16.78
2022-09-20 12:23:50.359375,19.56
2022-09-20 12:23:50.375000,21.57
2022-09-20 12:23:50.390625,22.81
2022-09-20 12:23:50.406250,23.31
2022-09-20 12:23:50.421875,23.2
2022-09-20 12:23:50.437500,22.66
2022-09-20 12:23:50.453125,21.88
2022-09-20 12:23:50.468750,21.02
2022-09-20 12:23:50.484375,20.2
2022-09-20 12:23:50.500000,19.45
2022-09-20 12:23:50.515625,18.69
2022-09-20 12:23:50.531250,17.82
2022-09-20 12:23:50.546875,16.68
2022-09-20 12:23:50.562500,15.16
2022-09-20 12:23:50.578125,13.19
2022-09-20 12:23:50.593750,10.82
2022-09-20 12:23:50.609375,8.15
2022-09-20 12:23:50.625000,5.34
2022-09-20 12:23:50.640625,2.58
2022-09-20 12:23:50.656250,-0.01
2022-09-20 12:23:50.671875,-2.38
2022-09-20 12:23:50.687500,-4.51
2022-09-20 12:23:50.703125,-6.44
2022-09-20 12:23:50.718750,-8.15
2022-09-20 12:23:50.734375,-9.61
2022-09-20 12:23:50.750000,-10.74
2022-09-20 12:23:50.765625,-11.49
2022-09-20 12:23:50.781250,-11.84
2022-09-20 12:23:50.796875,-11.81
2022-09-20 12:23:50.812500,-11.44
2022-09-20 12:23:50.828125,-10.73
2022-09-20 12:23:50.843750,-9.65
2022-09-20 12:23:50.859375,-8.14
2022-09-20 12:23:50.875000,-6.22
2022-09-20 12:23:50.890625,-3.99
2022-09-20 12:23:50.906250,-1.69
2022-09-20 12:23:50.921875,0.43
2022-09-20 12:23:50.937500,2.15
2022-09-20 12:23:50.953125,3.34
2022-09-20 12:23:50.968750,3.96
2022-09-20 12:23:50.984375,3.96
2022-09-20 12:23:51.000000,3.25
2022-09-20 12:23:51.015625,1.6
2022-09-20 12:23:51.031250,-1.2
2022-09-20 12:23:51.046875,-5.27
2022-09-20 12:23:51.062500,-10.5
2022-09-20 12:23:51.078125,-16.52
2022-09-20 12:23:51.093750,-22.75
2022-09-20 12:23:51.109375,-28.56
2022-09-20 12:23:51.125000,-33.42
2022-09-20 12:23:51.140625,-37.0
2022-09-20 12:23:51.156250,-39.2
2022-09-20 12:23:51.171875,-40.02
2022-09-20 12:23:51.187500,-39.49
2022-09-20 12:23:51.203125,-37.57
2022-09-20 12:23:51.218750,-34.25
2022-09-20 12:23:51.234375,-29.59
2022-09-20 12:23:51.250000,-23.86
2022-09-20 12:23:51.265625,-17.52
2022-09-20 12:23:51.281250,-11.14
2022-09-20 12:23:51.296875,-5.25
2022-09-20 12:23:51.312500,-0.21
2022-09-20 12:23:51.328125,3.88
2022-09-20 12:23:51.343750,7.07
2022-09-20 12:23:51.359375,9.57
2022-09-20 12:23:51.375000,11.54
2022-09-20 12:23:51.390625,13.13
2022-09-20 12:23:51.406250,14.36
2022-09-20 12:23:51.421875,15.24
2022-09-20 12:23:51.437500,15.69
2022-09-20 12:23:51.453125,15.67
2022-09-20 12:23:51.468750,15.22
2022-09-20 12:23:51.484375,14.52
2022-09-20 12:23:51.500000,13.93
2022-09-20 12:23:51.515625,13.89
2022-09-20 12:23:51.531250,14.79
2022-09-20 12:23:51.546875,16.83
2022-09-20 12:23:51.562500,19.96
2022-09-20 12:23:51.578125,23.84
2022-09-20 12:23:51.593750,28.03
2022-09-20 12:23:51.609375,32.01
2022-09-20 12:23:51.625000,35.33
2022-09-20 12:23:51.640625,37.61
2022-09-20 12:23:51.656250,38.58
2022-09-20 12:23:51.671875,38.18
2022-09-20 12:23:51.687500,36.55
2022-09-20 12:23:51.703125,34.1
2022-09-20 12:23:51.718750,31.34
2022-09-20 12:23:51.734375,28.75
2022-09-20 12:23:51.750000,26.52
2022-09-20 12:23:51.765625,24.5
2022-09-20 12:23:51.781250,22.3
2022-09-20 12:23:51.796875,19.43
2022-09-20 12:23:51.812500,15.6
2022-09-20 12:23:51.828125,10.79
2022-09-20 12:23:51.843750,5.32
2022-09-20 12:23:51.859375,-0.26
2022-09-20 12:23:51.875000,-5.34
2022-09-20 12:23:51.890625,-9.44
2022-09-20 12:23:51.906250,-12.29
2022-09-20 12:23:51.921875,-13.95
2022-09-20 12:23:51.937500,-14.75
2022-09-20 12:23:51.953125,-15.15
2022-09-20 12:23:51.968750,-15.6
2022-09-20 12:23:51.984375,-16.36
2022-09-20 12:23:52.000000,-17.49
2022-09-20 12:23:52.015625,-18.85
2022-09-20 12:23:52.031250,-20.24
2022-09-20 12:23:52.046875,-21.48
2022-09-20 12:23:52.062500,-22.48
2022-09-20 12:23:52.078125,-23.21
2022-09-20 12:23:52.093750,-23.67
2022-09-20 12:23:52.109375,-23.9
2022-09-20 12:23:52.125000,-23.9
2022-09-20 12:23:52.140625,-23.71
2022-09-20 12:23:52.156250,-23.37
2022-09-20 12:23:52.171875,-22.85
2022-09-20 12:23:52.187500,-22.05
2022-09-20 12:23:52.203125,-20.79
2022-09-20 12:23:52.218750,-18.85
2022-09-20 12:23:52.234375,-16.18
2022-09-20 12:23:52.250000,-12.86
2022-09-20 12:23:52.265625,-9.18
2022-09-20 12:23:52.281250,-5.5
2022-09-20 12:23:52.296875,-2.1
2022-09-20 12:23:52.312500,0.86
2022-09-20 12:23:52.328125,3.42
2022-09-20 12:23:52.343750,5.7
2022-09-20 12:23:52.359375,7.77
2022-09-20 12:23:52.375000,9.63
2022-09-20 12:23:52.390625,11.18
2022-09-20 12:23:52.406250,12.42
2022-09-20 12:23:52.421875,13.38
2022-09-20 12:23:52.437500,14.23
2022-09-20 12:23:52.453125,15.15
2022-09-20 12:23:52.468750,16.19
2022-09-20 12:23:52.484375,17.27
2022-09-20 12:23:52.500000,18.21
2022-09-20 12:23:52.515625,18.83
2022-09-20 12:23:52.531250,19.07
2022-09-20 12:23:52.546875,18.99
2022-09-20 12:23:52.562500,18.69
2022-09-20 12:23:52.578125,18.27
2022-09-20 12:23:52.593750,17.71
2022-09-20 12:23:52.609375,16.98
2022-09-20 12:23:52.625000,16.01
2022-09-20 12:23:52.640625,14.84
2022-09-20 12:23:52.656250,13.52
2022-09-20 12:23:52.671875,12.13
2022-09-20 12:23:52.687500,10.72
2022-09-20 12:23:52.703125,9.24
2022-09-20 12:23:52.718750,7.61
2022-09-20 12:23:52.734375,5.78
2022-09-20 12:23:52.750000,3.73
2022-09-20 12:23:52.765625,1.51
2022-09-20 12:23:52.781250,-0.74
2022-09-20 12:23:52.796875,-2.85
2022-09-20 12:23:52.812500,-4.64
2022-09-20 12:23:52.828125,-5.89
2022-09-20 12:23:52.843750,-6.44
2022-09-20 12:23:52.859375,-6.2
2022-09-20 12:23:52.875000,-5.21
2022-09-20 12:23:52.890625,-3.6
2022-09-20 12:23:52.906250,-1.58
2022-09-20 12:23:52.921875,0.6
2022-09-20 12:23:52.937500,2.75
2022-09-20 12:23:52.953125,4.72
2022-09-20 12:23:52.968750,6.45
2022-09-20 12:23:52.984375,7.89
2022-09-20 12:23:53.000000,9.01
2022-09-20 12:23:53.015625,9.78
2022-09-20 12:23:53.031250,10.13
2022-09-20 12:23:53.046875,10.0
2022-09-20 12:23:53.062500,9.4
2022-09-20 12:23:53.078125,8.39
2022-09-20 12:23:53.093750,7.14
2022-09-20 12:23:53.109375,5.89
2022-09-20 12:23:53.125000,4.83
2022-09-20 12:23:53.140625,4.14
2022-09-20 12:23:53.156250,3.84
2022-09-20 12:23:53.171875,3.89
2022-09-20 12:23:53.187500,4.16
2022-09-20 12:23:53.203125,4.47
2022-09-20 12:23:53.218750,4.66
2022-09-20 12:23:53.234375,4.63
2022-09-20 12:23:53.250000,4.32
2022-09-20 12:23:53.265625,3.77
2022-09-20 12:23:53.281250,3.04
2022-09-20 12:23:53.296875,2.16
2022-09-20 12:23:53.312500,1.19
2022-09-20 12:23:53.328125,0.13
2022-09-20 12:23:53.343750,-0.99
2022-09-20 12:23:53.359375,-2.12
2022-09-20 12:23:53.375000,-3.24
2022-09-20 12:23:53.390625,-4.36
2022-09-20 12:23:53.406250,-5.58
2022-09-20 12:23:53.421875,-6.97
2022-09-20 12:23:53.437500,-8.53
2022-09-20 12:23:53.453125,-10.05
2022-09-20 12:23:53.468750,-11.12
2022-09-20 12:23:53.484375,-11.31
2022-09-20 12:23:53.500000,-10.3
2022-09-20 12:23:53.515625,-8.13
2022-09-20 12:23:53.531250,-5.16
2022-09-20 12:23:53.546875,-1.97
2022-09-20 12:23:53.562500,0.89
2022-09-20 12:23:53.578125,3.13
2022-09-20 12:23:53.593750,4.73
2022-09-20 12:23:53.609375,5.88
2022-09-20 12:23:53.625000,6.83
2022-09-20 12:23:53.640625,7.67
2022-09-20 12:23:53.656250,8.36
2022-09-20 12:23:53.671875,8.74
2022-09-20 12:23:53.687500,8.71
2022-09-20 12:23:53.703125,8.28
2022-09-20 12:23:53.718750,7.55
2022-09-20 12:23:53.734375,6.73
2022-09-20 12:23:53.750000,5.96
2022-09-20 12:23:53.765625,5.37
2022-09-20 12:23:53.781250,4.96
2022-09-20 12:23:53.796875,4.69
2022-09-20 12:23:53.812500,4.47
2022-09-20 12:23:53.828125,4.25
2022-09-20 12:23:53.843750,3.97
2022-09-20 12:23:53.859375,3.58
2022-09-20 12:23:53.875000,3.05
2022-09-20 12:23:53.890625,2.33
2022-09-20 12:23:53.906250,1.42
2022-09-20 12:23:53.921875,0.36
2022-09-20 12:23:53.937500,-0.78
2022-09-20 12:23:53.953125,-1.9
2022-09-20 12:23:53.968750,-2.88
2022-09-20 12:23:53.984375,-3.67
2022-09-20 12:23:54.000000,-4.28
2022-09-20 12:23:54.015625,-4.85
2022-09-20 12:23:54.031250,-5.58
2022-09-20 12:23:54.046875,-6.66
2022-09-20 12:23:54.062500,-8.17
2022-09-20 12:23:54.078125,-10.01
2022-09-20 12:23:54.093750,-11.87
2022-09-20 12:23:54.109375,-13.37
2022-09-20 12:23:54.125000,-14.13
2022-09-20 12:23:54.140625,-13.93
2022-09-20 12:23:54.156250,-12.76
2022-09-20 12:23:54.171875,-10.83
2022-09-20 12:23:54.187500,-8.44
2022-09-20 12:23:54.203125,-5.88
2022-09-20 12:23:54.218750,-3.31
2022-09-20 12:23:54.234375,-0.81
2022-09-20 12:23:54.250000,1.59
2022-09-20 12:23:54.265625,3.85
2022-09-20 12:23:54.281250,5.8
2022-09-20 12:23:54.296875,7.26
2022-09-20 12:23:54.312500,8.1
2022-09-20 12:23:54.328125,8.35
2022-09-20 12:23:54.343750,8.18
2022-09-20 12:23:54.359375,7.83
2022-09-20 12:23:54.375000,7.52
2022-09-20 12:23:54.390625,7.33
2022-09-20 12:23:54.406250,7.22
2022-09-20 12:23:54.421875,7.09
2022-09-20 12:23:54.437500,6.84
2022-09-20 12:23:54.453125,6.46
2022-09-20 12:23:54.468750,6.0
2022-09-20 12:23:54.484375,5.53
2022-09-20 12:23:54.500000,5.07
2022-09-20 12:23:54.515625,4.59
2022-09-20 12:23:54.531250,4.04
2022-09-20 12:23:54.546875,3.34
2022-09-20 12:23:54.562500,2.48
2022-09-20 12:23:54.578125,1.53
2022-09-20 12:23:54.593750,0.6
2022-09-20 12:23:54.609375,-0.23
2022-09-20 12:23:54.625000,-0.87
2022-09-20 12:23:54.640625,-1.37
2022-09-20 12:23:54.656250,-1.82
2022-09-20 12:23:54.671875,-2.36
2022-09-20 12:23:54.687500,-3.14
2022-09-20 12:23:54.703125,-4.23
2022-09-20 12:23:54.718750,-5.62
2022-09-20 12:23:54.734375,-7.26
2022-09-20 12:23:54.750000,-9.04
2022-09-20 12:23:54.765625,-10.8
2022-09-20 12:23:54.781250,-12.35
2022-09-20 12:23:54.796875,-13.46
2022-09-20 12:23:54.812500,-13.92
2022-09-20 12:23:54.828125,-13.58
2022-09-20 12:23:54.843750,-12.39
2022-09-20 12:23:54.859375,-10.51
2022-09-20 12:23:54.875000,-8.19
2022-09-20 12:23:54.890625,-5.7
2022-09-20 12:23:54.906250,-3.3
2022-09-20 12:23:54.921875,-1.1
2022-09-20 12:23:54.937500,0.88
2022-09-20 12:23:54.953125,2.69
2022-09-20 12:23:54.968750,4.35
2022-09-20 12:23:54.984375,5.81
2022-09-20 12:23:55.000000,6.99
2022-09-20 12:23:55.015625,7.8
2022-09-20 12:23:55.031250,8.24
2022-09-20 12:23:55.046875,8.36
2022-09-20 12:23:55.062500,8.28
2022-09-20 12:23:55.078125,8.13
2022-09-20 12:23:55.093750,8.01
2022-09-20 12:23:55.109375,7.91
2022-09-20 12:23:55.125000,7.8
2022-09-20 12:23:55.140625,7.58
2022-09-20 12:23:55.156250,7.17
2022-09-20 12:23:55.171875,6.57
2022-09-20 12:23:55.187500,5.81
2022-09-20 12:23:55.203125,5.01
2022-09-20 12:23:55.218750,4.3
2022-09-20 12:23:55.234375,3.76
2022-09-20 12:23:55.250000,3.39
2022-09-20 12:23:55.265625,3.09
2022-09-20 12:23:55.281250,2.76
2022-09-20 12:23:55.296875,2.27
2022-09-20 12:23:55.312500,1.59
2022-09-20 12:23:55.328125,0.74
2022-09-20 12:23:55.343750,-0.22
2022-09-20 12:23:55.359375,-1.22
2022-09-20 12:23:55.375000,-2.22
2022-09-20 12:23:55.390625,-3.22
2022-09-20 12:23:55.406250,-4.18
2022-09-20 12:23:55.421875,-5.14
2022-09-20 12:23:55.437500,-6.1
2022-09-20 12:23:55.453125,-7.11
2022-09-20 12:23:55.468750,-8.21
2022-09-20 12:23:55.484375,-9.46
2022-09-20 12:23:55.500000,-10.9
2022-09-20 12:23:55.515625,-12.49
2022-09-20 12:23:55.531250,-14.11
2022-09-20 12:23:55.546875,-15.57
2022-09-20 12:23:55.562500,-16.56
2022-09-20 12:23:55.578125,-16.81
2022-09-20 12:23:55.593750,-16.11
2022-09-20 12:23:55.609375,-14.4
2022-09-20 12:23:55.625000,-11.88
2022-09-20 12:23:55.640625,-8.88
2022-09-20 12:23:55.656250,-5.78
2022-09-20 12:23:55.671875,-2.9
2022-09-20 12:23:55.687500,-0.41
2022-09-20 12:23:55.703125,1.64
2022-09-20 12:23:55.718750,3.32
2022-09-20 12:23:55.734375,4.73
2022-09-20 12:23:55.750000,5.94
2022-09-20 12:23:55.765625,6.97
2022-09-20 12:23:55.781250,7.82
2022-09-20 12:23:55.796875,8.43
2022-09-20 12:23:55.812500,8.75
2022-09-20 12:23:55.828125,8.76
2022-09-20 12:23:55.843750,8.51
2022-09-20 12:23:55.859375,8.1
2022-09-20 12:23:55.875000,7.67
2022-09-20 12:23:55.890625,7.33
2022-09-20 12:23:55.906250,7.13
2022-09-20 12:23:55.921875,7.03
2022-09-20 12:23:55.937500,6.91
2022-09-20 12:23:55.953125,6.7
2022-09-20 12:23:55.968750,6.36
2022-09-20 12:23:55.984375,5.87
2022-09-20 12:23:56.000000,5.27
2022-09-20 12:23:56.015625,4.57
2022-09-20 12:23:56.031250,3.75
2022-09-20 12:23:56.046875,2.79
2022-09-20 12:23:56.062500,1.71
2022-09-20 12:23:56.078125,0.56
2022-09-20 12:23:56.093750,-0.6
2022-09-20 12:23:56.109375,-1.65
2022-09-20 12:23:56.125000,-2.58
2022-09-20 12:23:56.140625,-3.36
2022-09-20 12:23:56.156250,-4.08
2022-09-20 12:23:56.171875,-4.8
2022-09-20 12:23:56.187500,-5.63
2022-09-20 12:23:56.203125,-6.62
2022-09-20 12:23:56.218750,-7.81
2022-09-20 12:23:56.234375,-9.2
2022-09-20 12:23:56.250000,-10.75
2022-09-20 12:23:56.265625,-12.41
2022-09-20 12:23:56.281250,-14.08
2022-09-20 12:23:56.296875,-15.6
2022-09-20 12:23:56.312500,-16.73
2022-09-20 12:23:56.328125,-17.2
2022-09-20 12:23:56.343750,-16.78
2022-09-20 12:23:56.359375,-15.34
2022-09-20 12:23:56.375000,-12.95
2022-09-20 12:23:56.390625,-9.86
2022-09-20 12:23:56.406250,-6.49
2022-09-20 12:23:56.421875,-3.26
2022-09-20 12:23:56.437500,-0.46
2022-09-20 12:23:56.453125,1.8
2022-09-20 12:23:56.468750,3.61
2022-09-20 12:23:56.484375,5.1
2022-09-20 12:23:56.500000,6.39
2022-09-20 12:23:56.515625,7.47
2022-09-20 12:23:56.531250,8.26
2022-09-20 12:23:56.546875,8.7
2022-09-20 12:23:56.562500,8.8
2022-09-20 12:23:56.578125,8.71
2022-09-20 12:23:56.593750,8.57
2022-09-20 12:23:56.609375,8.49
2022-09-20 12:23:56.625000,8.46
2022-09-20 12:23:56.640625,8.4
2022-09-20 12:23:56.656250,8.2
2022-09-20 12:23:56.671875,7.84
2022-09-20 12:23:56.687500,7.35
2022-09-20 12:23:56.703125,6.83
2022-09-20 12:23:56.718750,6.36
2022-09-20 12:23:56.734375,5.93
2022-09-20 12:23:56.750000,5.49
2022-09-20 12:23:56.765625,4.95
2022-09-20 12:23:56.781250,4.25
2022-09-20 12:23:56.796875,3.38
2022-09-20 12:23:56.812500,2.35
2022-09-20 12:23:56.828125,1.23
2022-09-20 12:23:56.843750,0.06
2022-09-20 12:23:56.859375,-1.09
2022-09-20 12:23:56.875000,-2.17
2022-09-20 12:23:56.890625,-3.14
2022-09-20 12:23:56.906250,-4.0
2022-09-20 12:23:56.921875,-4.79
2022-09-20 12:23:56.937500,-5.59
2022-09-20 12:23:56.953125,-6.5
2022-09-20 12:23:56.968750,-7.61
2022-09-20 12:23:56.984375,-8.99
2022-09-20 12:23:57.000000,-10.63
2022-09-20 12:23:57.015625,-12.46
2022-09-20 12:23:57.031250,-14.3
2022-09-20 12:23:57.046875,-15.93
2022-09-20 12:23:57.062500,-17.05
2022-09-20 12:23:57.078125,-17.4
2022-09-20 12:23:57.093750,-16.81
2022-09-20 12:23:57.109375,-15.27
2022-09-20 12:23:57.125000,-12.98
2022-09-20 12:23:57.140625,-10.21
2022-09-20 12:23:57.156250,-7.26
2022-09-20 12:23:57.171875,-4.38
2022-09-20 12:23:57.187500,-1.72
2022-09-20 12:23:57.203125,0.7
2022-09-20 12:23:57.218750,2.87
2022-09-20 12:23:57.234375,4.81
2022-09-20 12:23:57.250000,6.51
2022-09-20 12:23:57.265625,7.96
2022-09-20 12:23:57.281250,9.13
2022-09-20 12:23:57.296875,10.03
2022-09-20 12:23:57.312500,10.65
2022-09-20 12:23:57.328125,11.02
2022-09-20 12:23:57.343750,11.14
2022-09-20 12:23:57.359375,11.04
2022-09-20 12:23:57.375000,10.75
2022-09-20 12:23:57.390625,10.35
2022-09-20 12:23:57.406250,9.87
2022-09-20 12:23:57.421875,9.4
2022-09-20 12:23:57.437500,8.96
2022-09-20 12:23:57.453125,8.55
2022-09-20 12:23:57.468750,8.15
2022-09-20 12:23:57.484375,7.72
2022-09-20 12:23:57.500000,7.22
2022-09-20 12:23:57.515625,6.63
2022-09-20 12:23:57.531250,6.0
2022-09-20 12:23:57.546875,5.33
2022-09-20 12:23:57.562500,4.64
2022-09-20 12:23:57.578125,3.9
2022-09-20 12:23:57.593750,3.08
2022-09-20 12:23:57.609375,2.19
2022-09-20 12:23:57.625000,1.24
2022-09-20 12:23:57.640625,0.28
2022-09-20 12:23:57.656250,-0.66
2022-09-20 12:23:57.671875,-1.56
2022-09-20 12:23:57.687500,-2.47
2022-09-20 12:23:57.703125,-3.39
2022-09-20 12:23:57.718750,-4.36
2022-09-20 12:23:57.734375,-5.4
2022-09-20 12:23:57.750000,-6.54
2022-09-20 12:23:57.765625,-7.8
2022-09-20 12:23:57.781250,-9.25
2022-09-20 12:23:57.796875,-10.89
2022-09-20 12:23:57.812500,-12.71
2022-09-20 12:23:57.828125,-14.62
2022-09-20 12:23:57.843750,-16.46
2022-09-20 12:23:57.859375,-18.02
2022-09-20 12:23:57.875000,-19.04
2022-09-20 12:23:57.890625,-19.25
2022-09-20 12:23:57.906250,-18.48
2022-09-20 12:23:57.921875,-16.7
2022-09-20 12:23:57.937500,-14.06
2022-09-20 12:23:57.953125,-10.84
2022-09-20 12:23:57.968750,-7.41
2022-09-20 12:23:57.984375,-4.11
2022-09-20 12:23:58.000000,-1.14
2022-09-20 12:23:58.015625,1.42
2022-09-20 12:23:58.031250,3.58
2022-09-20 12:23:58.046875,5.41
2022-09-20 12:23:58.062500,6.98
2022-09-20 12:23:58.078125,8.32
2022-09-20 12:23:58.093750,9.45
2022-09-20 12:23:58.109375,10.36
2022-09-20 12:23:58.125000,11.02
2022-09-20 12:23:58.140625,11.38
2022-09-20 12:23:58.156250,11.45
2022-09-20 12:23:58.171875,11.25
2022-09-20 12:23:58.187500,10.87
2022-09-20 12:23:58.203125,10.41
2022-09-20 12:23:58.218750,10.01
2022-09-20 12:23:58.234375,9.74
2022-09-20 12:23:58.250000,9.63
2022-09-20 12:23:58.265625,9.67
2022-09-20 12:23:58.281250,9.76
2022-09-20 12:23:58.296875,9.82
2022-09-20 12:23:58.312500,9.73
2022-09-20 12:23:58.328125,9.42
2022-09-20 12:23:58.343750,8.89
2022-09-20 12:23:58.359375,8.16
2022-09-20 12:23:58.375000,7.29
2022-09-20 12:23:58.390625,6.34
2022-09-20 12:23:58.406250,5.32
2022-09-20 12:23:58.421875,4.26
2022-09-20 12:23:58.437500,3.19
2022-09-20 12:23:58.453125,2.12
2022-09-20 12:23:58.468750,1.09
2022-09-20 12:23:58.484375,0.07
2022-09-20 12:23:58.500000,-0.96
2022-09-20 12:23:58.515625,-2.06
2022-09-20 12:23:58.531250,-3.19
2022-09-20 12:23:58.546875,-4.33
2022-09-20 12:23:58.562500,-5.37
2022-09-20 12:23:58.578125,-6.29
2022-09-20 12:23:58.593750,-7.14
2022-09-20 12:23:58.609375,-8.04
2022-09-20 12:23:58.625000,-9.13
2022-09-20 12:23:58.640625,-10.5
2022-09-20 12:23:58.656250,-12.17
2022-09-20 12:23:58.671875,-14.06
2022-09-20 12:23:58.687500,-16.03
2022-09-20 12:23:58.703125,-17.85
2022-09-20 12:23:58.718750,-19.25
2022-09-20 12:23:58.734375,-19.89
2022-09-20 12:23:58.750000,-19.56
2022-09-20 12:23:58.765625,-18.19
2022-09-20 12:23:58.781250,-15.91
2022-09-20 12:23:58.796875,-13.03
2022-09-20 12:23:58.812500,-9.9
2022-09-20 12:23:58.828125,-6.79
2022-09-20 12:23:58.843750,-3.85
2022-09-20 12:23:58.859375,-1.1
2022-09-20 12:23:58.875000,1.43
2022-09-20 12:23:58.890625,3.74
2022-09-20 12:23:58.906250,5.74
2022-09-20 12:23:58.921875,7.38
2022-09-20 12:23:58.937500,8.66
2022-09-20 12:23:58.953125,9.62
2022-09-20 12:23:58.968750,10.29
2022-09-20 12:23:58.984375,10.69
2022-09-20 12:23:59.000000,10.77
2022-09-20 12:23:59.015625,10.56
2022-09-20 12:23:59.031250,10.11
2022-09-20 12:23:59.046875,9.6
2022-09-20 12:23:59.062500,9.18
2022-09-20 12:23:59.078125,8.98
2022-09-20 12:23:59.093750,9.01
2022-09-20 12:23:59.109375,9.15
2022-09-20 12:23:59.125000,9.26
2022-09-20 12:23:59.140625,9.19
2022-09-20 12:23:59.156250,8.91
2022-09-20 12:23:59.171875,8.45
2022-09-20 12:23:59.187500,7.89
2022-09-20 12:23:59.203125,7.31
2022-09-20 12:23:59.218750,6.75
2022-09-20 12:23:59.234375,6.22
2022-09-20 12:23:59.250000,5.7
2022-09-20 12:23:59.265625,5.17
2022-09-20 12:23:59.281250,4.6
2022-09-20 12:23:59.296875,3.94
2022-09-20 12:23:59.312500,3.12
2022-09-20 12:23:59.328125,2.07
2022-09-20 12:23:59.343750,0.77
2022-09-20 12:23:59.359375,-0.74
2022-09-20 12:23:59.375000,-2.31
2022-09-20 12:23:59.390625,-3.75
2022-09-20 12:23:59.406250,-4.9
2022-09-20 12:23:59.421875,-5.72
2022-09-20 12:23:59.437500,-6.34
2022-09-20 12:23:59.453125,-7.03
2022-09-20 12:23:59.468750,-8.01
2022-09-20 12:23:59.484375,-9.41
2022-09-20 12:23:59.500000,-11.22
2022-09-20 12:23:59.515625,-13.24
2022-09-20 12:23:59.531250,-15.26
2022-09-20 12:23:59.546875,-17.04
2022-09-20 12:23:59.562500,-18.38
2022-09-20 12:23:59.578125,-19.08
2022-09-20 12:23:59.593750,-18.93
2022-09-20 12:23:59.609375,-17.82
2022-09-20 12:23:59.625000,-15.72
2022-09-20 12:23:59.640625,-12.81
2022-09-20 12:23:59.656250,-9.39
2022-09-20 12:23:59.671875,-5.85
2022-09-20 12:23:59.687500,-2.52
2022-09-20 12:23:59.703125,0.44
2022-09-20 12:23:59.718750,2.97
2022-09-20 12:23:59.734375,5.12
2022-09-20 12:23:59.750000,6.92
2022-09-20 12:23:59.765625,8.35
2022-09-20 12:23:59.781250,9.36
2022-09-20 12:23:59.796875,9.92
2022-09-20 12:23:59.812500,10.1
2022-09-20 12:23:59.828125,10.02
2022-09-20 12:23:59.843750,9.84
2022-09-20 12:23:59.859375,9.68
2022-09-20 12:23:59.875000,9.58
2022-09-20 12:23:59.890625,9.51
2022-09-20 12:23:59.906250,9.4
2022-09-20 12:23:59.921875,9.19
2022-09-20 12:23:59.937500,8.88
2022-09-20 12:23:59.953125,8.5
2022-09-20 12:23:59.968750,8.08
2022-09-20 12:23:59.984375,7.63
2022-09-20 12:24:00.000000,7.16
2022-09-20 12:24:00.015625,6.65
2022-09-20 12:24:00.031250,6.1
2022-09-20 12:24:00.046875,5.55
2022-09-20 12:24:00.062500,4.98
2022-09-20 12:24:00.078125,4.41
2022-09-20 12:24:00.093750,3.79
2022-09-20 12:24:00.109375,3.08
2022-09-20 12:24:00.125000,2.22
2022-09-20 12:24:00.140625,1.17
2022-09-20 12:24:00.156250,-0.06
2022-09-20 12:24:00.171875,-1.44
2022-09-20 12:24:00.187500,-2.88
2022-09-20 12:24:00.203125,-4.24
2022-09-20 12:24:00.218750,-5.41
2022-09-20 12:24:00.234375,-6.35
2022-09-20 12:24:00.250000,-7.1
2022-09-20 12:24:00.265625,-7.83
2022-09-20 12:24:00.281250,-8.74
2022-09-20 12:24:00.296875,-10.01
2022-09-20 12:24:00.312500,-11.66
2022-09-20 12:24:00.328125,-13.53
2022-09-20 12:24:00.343750,-15.28
2022-09-20 12:24:00.359375,-16.49
2022-09-20 12:24:00.375000,-16.79
2022-09-20 12:24:00.390625,-15.99
2022-09-20 12:24:00.406250,-14.11
2022-09-20 12:24:00.421875,-11.39
2022-09-20 12:24:00.437500,-8.15
2022-09-20 12:24:00.453125,-4.76
2022-09-20 12:24:00.468750,-1.47
2022-09-20 12:24:00.484375,1.5
2022-09-20 12:24:00.500000,4.05
2022-09-20 12:24:00.515625,6.15
2022-09-20 12:24:00.531250,7.83
2022-09-20 12:24:00.546875,9.14
2022-09-20 12:24:00.562500,10.12
2022-09-20 12:24:00.578125,10.84
2022-09-20 12:24:00.593750,11.32
2022-09-20 12:24:00.609375,11.56
2022-09-20 12:24:00.625000,11.61
2022-09-20 12:24:00.640625,11.51
2022-09-20 12:24:00.656250,11.32
2022-09-20 12:24:00.671875,11.07
2022-09-20 12:24:00.687500,10.77
2022-09-20 12:24:00.703125,10.37
2022-09-20 12:24:00.718750,9.85
2022-09-20 12:24:00.734375,9.19
2022-09-20 12:24:00.750000,8.44
2022-09-20 12:24:00.765625,7.69
2022-09-20 12:24:00.781250,6.98
2022-09-20 12:24:00.796875,6.35
2022-09-20 12:24:00.812500,5.77
2022-09-20 12:24:00.828125,5.19
2022-09-20 12:24:00.843750,4.58
2022-09-20 12:24:00.859375,3.92
2022-09-20 12:24:00.875000,3.23
2022-09-20 12:24:00.890625,2.5
2022-09-20 12:24:00.906250,1.73
2022-09-20 12:24:00.921875,0.88
2022-09-20 12:24:00.937500,-0.07
2022-09-20 12:24:00.953125,-1.16
2022-09-20 12:24:00.968750,-2.4
2022-09-20 12:24:00.984375,-3.74
2022-09-20 12:24:01.000000,-5.11
2022-09-20 12:24:01.015625,-6.43
2022-09-20 12:24:01.031250,-7.69
2022-09-20 12:24:01.046875,-8.91
2022-09-20 12:24:01.062500,-10.2
2022-09-20 12:24:01.078125,-11.66
2022-09-20 12:24:01.093750,-13.29
2022-09-20 12:24:01.109375,-14.95
2022-09-20 12:24:01.125000,-16.38
2022-09-20 12:24:01.140625,-17.25
2022-09-20 12:24:01.156250,-17.27
2022-09-20 12:24:01.171875,-16.32
2022-09-20 12:24:01.187500,-14.46
2022-09-20 12:24:01.203125,-11.91
2022-09-20 12:24:01.218750,-8.95
2022-09-20 12:24:01.234375,-5.87
2022-09-20 12:24:01.250000,-2.87
2022-09-20 12:24:01.265625,-0.06
2022-09-20 12:24:01.281250,2.5
2022-09-20 12:24:01.296875,4.76
2022-09-20 12:24:01.312500,6.69
2022-09-20 12:24:01.328125,8.21
2022-09-20 12:24:01.343750,9.24
2022-09-20 12:24:01.359375,9.77
2022-09-20 12:24:01.375000,9.87
2022-09-20 12:24:01.390625,9.68
2022-09-20 12:24:01.406250,9.4
2022-09-20 12:24:01.421875,9.19
2022-09-20 12:24:01.437500,9.11
2022-09-20 12:24:01.453125,9.12
2022-09-20 12:24:01.468750,9.1
2022-09-20 12:24:01.484375,8.94
2022-09-20 12:24:01.500000,8.61
2022-09-20 12:24:01.515625,8.16
2022-09-20 12:24:01.531250,7.67
2022-09-20 12:24:01.546875,7.21
2022-09-20 12:24:01.562500,6.78
2022-09-20 12:24:01.578125,6.37
2022-09-20 12:24:01.593750,5.94
2022-09-20 12:24:01.609375,5.46
2022-09-20 12:24:01.625000,4.94
2022-09-20 12:24:01.640625,4.37
2022-09-20 12:24:01.656250,3.74
2022-09-20 12:24:01.671875,3.03
2022-09-20 12:24:01.687500,2.19
2022-09-20 12:24:01.703125,1.19
2022-09-20 12:24:01.718750,0.04
2022-09-20 12:24:01.734375,-1.26
2022-09-20 12:24:01.750000,-2.65
2022-09-20 12:24:01.765625,-4.04
2022-09-20 12:24:01.781250,-5.36
2022-09-20 12:24:01.796875,-6.57
2022-09-20 12:24:01.812500,-7.72
2022-09-20 12:24:01.828125,-8.91
2022-09-20 12:24:01.843750,-10.3
2022-09-20 12:24:01.859375,-11.96
2022-09-20 12:24:01.875000,-13.82
2022-09-20 12:24:01.890625,-15.62
2022-09-20 12:24:01.906250,-16.97
2022-09-20 12:24:01.921875,-17.47
2022-09-20 12:24:01.937500,-16.85
2022-09-20 12:24:01.953125,-15.11
2022-09-20 12:24:01.968750,-12.47
2022-09-20 12:24:01.984375,-9.33
2022-09-20 12:24:02.000000,-6.09
2022-09-20 12:24:02.015625,-3.04
2022-09-20 12:24:02.031250,-0.34
2022-09-20 12:24:02.046875,2.02
2022-09-20 12:24:02.062500,4.07
2022-09-20 12:24:02.078125,5.85
2022-09-20 12:24:02.093750,7.31
2022-09-20 12:24:02.109375,8.38
2022-09-20 12:24:02.125000,9.02
2022-09-20 12:24:02.140625,9.24
2022-09-20 12:24:02.156250,9.12
2022-09-20 12:24:02.171875,8.83
2022-09-20 12:24:02.187500,8.5
2022-09-20 12:24:02.203125,8.24
2022-09-20 12:24:02.218750,8.08
2022-09-20 12:24:02.234375,7.97
2022-09-20 12:24:02.250000,7.82
2022-09-20 12:24:02.265625,7.52
2022-09-20 12:24:02.281250,7.02
2022-09-20 12:24:02.296875,6.35
2022-09-20 12:24:02.312500,5.65
2022-09-20 12:24:02.328125,5.06
2022-09-20 12:24:02.343750,4.71
2022-09-20 12:24:02.359375,4.58
2022-09-20 12:24:02.375000,4.54
2022-09-20 12:24:02.390625,4.37
2022-09-20 12:24:02.406250,3.91
2022-09-20 12:24:02.421875,3.11
2022-09-20 12:24:02.437500,2.04
2022-09-20 12:24:02.453125,0.86
2022-09-20 12:24:02.468750,-0.27
2022-09-20 12:24:02.484375,-1.26
2022-09-20 12:24:02.500000,-2.15
2022-09-20 12:24:02.515625,-3.02
2022-09-20 12:24:02.531250,-3.98
2022-09-20 12:24:02.546875,-5.09
2022-09-20 12:24:02.562500,-6.35
2022-09-20 12:24:02.578125,-7.68
2022-09-20 12:24:02.593750,-9.04
2022-09-20 12:24:02.609375,-10.4
2022-09-20 12:24:02.625000,-11.78
2022-09-20 12:24:02.640625,-13.16
2022-09-20 12:24:02.656250,-14.46
2022-09-20 12:24:02.671875,-15.42
2022-09-20 12:24:02.687500,-15.73
2022-09-20 12:24:02.703125,-15.09
2022-09-20 12:24:02.718750,-13.36
2022-09-20 12:24:02.734375,-10.69
2022-09-20 12:24:02.750000,-7.44
2022-09-20 12:24:02.765625,-4.13
2022-09-20 12:24:02.781250,-1.15
2022-09-20 12:24:02.796875,1.25
2022-09-20 12:24:02.812500,3.07
2022-09-20 12:24:02.828125,4.42
2022-09-20 12:24:02.843750,5.46
2022-09-20 12:24:02.859375,6.3
2022-09-20 12:24:02.875000,7.01
2022-09-20 12:24:02.890625,7.6
2022-09-20 12:24:02.906250,8.1
2022-09-20 12:24:02.921875,8.51
2022-09-20 12:24:02.937500,8.85
2022-09-20 12:24:02.953125,9.06
2022-09-20 12:24:02.968750,9.11
2022-09-20 12:24:02.984375,8.95
2022-09-20 12:24:03.000000,8.59
2022-09-20 12:24:03.015625,8.05
2022-09-20 12:24:03.031250,7.42
2022-09-20 12:24:03.046875,6.78
2022-09-20 12:24:03.062500,6.18
2022-09-20 12:24:03.078125,5.68
2022-09-20 12:24:03.093750,5.33
2022-09-20 12:24:03.109375,5.12
2022-09-20 12:24:03.125000,5.0
2022-09-20 12:24:03.140625,4.84
2022-09-20 12:24:03.156250,4.49
2022-09-20 12:24:03.171875,3.8
2022-09-20 12:24:03.187500,2.75
2022-09-20 12:24:03.203125,1.41
2022-09-20 12:24:03.218750,-0.03
2022-09-20 12:24:03.234375,-1.39
2022-09-20 12:24:03.250000,-2.56
2022-09-20 12:24:03.265625,-3.54
2022-09-20 12:24:03.281250,-4.45
2022-09-20 12:24:03.296875,-5.45
2022-09-20 12:24:03.312500,-6.66
2022-09-20 12:24:03.328125,-8.15
2022-09-20 12:24:03.343750,-9.89
2022-09-20 12:24:03.359375,-11.72
2022-09-20 12:24:03.375000,-13.38
2022-09-20 12:24:03.390625,-14.57
2022-09-20 12:24:03.406250,-15.01
2022-09-20 12:24:03.421875,-14.53
2022-09-20 12:24:03.437500,-13.16
2022-09-20 12:24:03.453125,-11.07
2022-09-20 12:24:03.468750,-8.53
2022-09-20 12:24:03.484375,-5.84
2022-09-20 12:24:03.500000,-3.21
2022-09-20 12:24:03.515625,-0.75
2022-09-20 12:24:03.531250,1.49
2022-09-20 12:24:03.546875,3.53
2022-09-20 12:24:03.562500,5.33
2022-09-20 12:24:03.578125,6.84
2022-09-20 12:24:03.593750,8.0
2022-09-20 12:24:03.609375,8.82
2022-09-20 12:24:03.625000,9.32
2022-09-20 12:24:03.640625,9.58
2022-09-20 12:24:03.656250,9.71
2022-09-20 12:24:03.671875,9.79
2022-09-20 12:24:03.687500,9.83
2022-09-20 12:24:03.703125,9.8
2022-09-20 12:24:03.718750,9.65
2022-09-20 12:24:03.734375,9.39
2022-09-20 12:24:03.750000,9.02
2022-09-20 12:24:03.765625,8.61
2022-09-20 12:24:03.781250,8.2
2022-09-20 12:24:03.796875,7.79
2022-09-20 12:24:03.812500,7.33
2022-09-20 12:24:03.828125,6.77
2022-09-20 12:24:03.843750,6.07
2022-09-20 12:24:03.859375,5.23
2022-09-20 12:24:03.875000,4.3
2022-09-20 12:24:03.890625,3.29
2022-09-20 12:24:03.906250,2.26
2022-09-20 12:24:03.921875,1.21
2022-09-20 12:24:03.937500,0.16
2022-09-20 12:24:03.953125,-0.89
2022-09-20 12:24:03.968750,-1.92
2022-09-20 12:24:03.984375,-2.91
2022-09-20 12:24:04.000000,-3.83
2022-09-20 12:24:04.015625,-4.68
2022-09-20 12:24:04.031250,-5.46
2022-09-20 12:24:04.046875,-6.22
2022-09-20 12:24:04.062500,-7.03
2022-09-20 12:24:04.078125,-8.04
2022-09-20 12:24:04.093750,-9.38
2022-09-20 12:24:04.109375,-11.14
2022-09-20 12:24:04.125000,-13.23
2022-09-20 12:24:04.140625,-15.38
2022-09-20 12:24:04.156250,-17.2
2022-09-20 12:24:04.171875,-18.23
2022-09-20 12:24:04.187500,-18.17
2022-09-20 12:24:04.203125,-16.91
2022-09-20 12:24:04.218750,-14.63
2022-09-20 12:24:04.234375,-11.66
2022-09-20 12:24:04.250000,-8.38
2022-09-20 12:24:04.265625,-5.13
2022-09-20 12:24:04.281250,-2.13
2022-09-20 12:24:04.296875,0.54
2022-09-20 12:24:04.312500,2.83
2022-09-20 12:24:04.328125,4.77
2022-09-20 12:24:04.343750,6.34
2022-09-20 12:24:04.359375,7.54
2022-09-20 12:24:04.375000,8.38
2022-09-20 12:24:04.390625,8.9
2022-09-20 12:24:04.406250,9.15
2022-09-20 12:24:04.421875,9.23
2022-09-20 12:24:04.437500,9.21
2022-09-20 12:24:04.453125,9.17
2022-09-20 12:24:04.468750,9.13
2022-09-20 12:24:04.484375,9.1
2022-09-20 12:24:04.500000,9.04
2022-09-20 12:24:04.515625,8.88
2022-09-20 12:24:04.531250,8.56
2022-09-20 12:24:04.546875,8.06
2022-09-20 12:24:04.562500,7.41
2022-09-20 12:24:04.578125,6.71
2022-09-20 12:24:04.593750,6.08
2022-09-20 12:24:04.609375,5.59
2022-09-20 12:24:04.625000,5.2
2022-09-20 12:24:04.640625,4.85
2022-09-20 12:24:04.656250,4.37
2022-09-20 12:24:04.671875,3.67
2022-09-20 12:24:04.687500,2.74
2022-09-20 12:24:04.703125,1.64
2022-09-20 12:24:04.718750,0.5
2022-09-20 12:24:04.734375,-0.56
2022-09-20 12:24:04.750000,-1.47
2022-09-20 12:24:04.765625,-2.24
2022-09-20 12:24:04.781250,-2.93
2022-09-20 12:24:04.796875,-3.7
2022-09-20 12:24:04.812500,-4.72
2022-09-20 12:24:04.828125,-6.11
2022-09-20 12:24:04.843750,-7.96
2022-09-20 12:24:04.859375,-10.16
2022-09-20 12:24:04.875000,-12.51
2022-09-20 12:24:04.890625,-14.67
2022-09-20 12:24:04.906250,-16.32
2022-09-20 12:24:04.921875,-17.22
2022-09-20 12:24:04.937500,-17.28
2022-09-20 12:24:04.953125,-16.55
2022-09-20 12:24:04.968750,-15.16
2022-09-20 12:24:04.984375,-13.27
2022-09-20 12:24:05.000000,-11.01
2022-09-20 12:24:05.015625,-8.48
2022-09-20 12:24:05.031250,-5.82
2022-09-20 12:24:05.046875,-3.21
2022-09-20 12:24:05.062500,-0.82
2022-09-20 12:24:05.078125,1.23
2022-09-20 12:24:05.093750,2.89
2022-09-20 12:24:05.109375,4.24
2022-09-20 12:24:05.125000,5.35
2022-09-20 12:24:05.140625,6.3
2022-09-20 12:24:05.156250,7.08
2022-09-20 12:24:05.171875,7.64
2022-09-20 12:24:05.187500,7.95
2022-09-20 12:24:05.203125,8.06
2022-09-20 12:24:05.218750,8.08
2022-09-20 12:24:05.234375,8.11
2022-09-20 12:24:05.250000,8.18
2022-09-20 12:24:05.265625,8.22
2022-09-20 12:24:05.281250,8.08
2022-09-20 12:24:05.296875,7.66
2022-09-20 12:24:05.312500,6.95
2022-09-20 12:24:05.328125,6.08
2022-09-20 12:24:05.343750,5.22
2022-09-20 12:24:05.359375,4.49
2022-09-20 12:24:05.375000,3.92
2022-09-20 12:24:05.390625,3.42
2022-09-20 12:24:05.406250,2.81
2022-09-20 12:24:05.421875,2.01
2022-09-20 12:24:05.437500,1.01
2022-09-20 12:24:05.453125,-0.08
2022-09-20 12:24:05.468750,-1.11
2022-09-20 12:24:05.484375,-2.0
2022-09-20 12:24:05.500000,-2.82
2022-09-20 12:24:05.515625,-3.7
2022-09-20 12:24:05.531250,-4.86
2022-09-20 12:24:05.546875,-6.42
2022-09-20 12:24:05.562500,-8.36
2022-09-20 12:24:05.578125,-10.49
2022-09-20 12:24:05.593750,-12.53
2022-09-20 12:24:05.609375,-14.19
2022-09-20 12:24:05.625000,-15.29
2022-09-20 12:24:05.640625,-15.72
2022-09-20 12:24:05.656250,-15.45
2022-09-20 12:24:05.671875,-14.51
2022-09-20 12:24:05.687500,-12.97
2022-09-20 12:24:05.703125,-10.9
2022-09-20 12:24:05.718750,-8.44
2022-09-20 12:24:05.734375,-5.71
2022-09-20 12:24:05.750000,-2.87
2022-09-20 12:24:05.765625,-0.05
2022-09-20 12:24:05.781250,2.65
2022-09-20 12:24:05.796875,5.08
2022-09-20 12:24:05.812500,7.14
2022-09-20 12:24:05.828125,8.72
2022-09-20 12:24:05.843750,9.74
2022-09-20 12:24:05.859375,10.27
2022-09-20 12:24:05.875000,10.41
2022-09-20 12:24:05.890625,10.37
2022-09-20 12:24:05.906250,10.32
2022-09-20 12:24:05.921875,10.35
2022-09-20 12:24:05.937500,10.45
2022-09-20 12:24:05.953125,10.51
2022-09-20 12:24:05.968750,10.44
2022-09-20 12:24:05.984375,10.17
2022-09-20 12:24:06.000000,9.71
2022-09-20 12:24:06.015625,9.12
2022-09-20 12:24:06.031250,8.48
2022-09-20 12:24:06.046875,7.82
2022-09-20 12:24:06.062500,7.16
2022-09-20 12:24:06.078125,6.48
2022-09-20 12:24:06.093750,5.77
2022-09-20 12:24:06.109375,5.0
2022-09-20 12:24:06.125000,4.16
2022-09-20 12:24:06.140625,3.2
2022-09-20 12:24:06.156250,2.12
2022-09-20 12:24:06.171875,0.93
2022-09-20 12:24:06.187500,-0.35
2022-09-20 12:24:06.203125,-1.67
2022-09-20 12:24:06.218750,-3.01
2022-09-20 12:24:06.234375,-4.37
2022-09-20 12:24:06.250000,-5.77
2022-09-20 12:24:06.265625,-7.24
2022-09-20 12:24:06.281250,-8.77
2022-09-20 12:24:06.296875,-10.32
2022-09-20 12:24:06.312500,-11.83
2022-09-20 12:24:06.328125,-13.17
2022-09-20 12:24:06.343750,-14.19
2022-09-20 12:24:06.359375,-14.67
2022-09-20 12:24:06.375000,-14.42
2022-09-20 12:24:06.390625,-13.31
2022-09-20 12:24:06.406250,-11.4
2022-09-20 12:24:06.421875,-8.91
2022-09-20 12:24:06.437500,-6.2
2022-09-20 12:24:06.453125,-3.58
2022-09-20 12:24:06.468750,-1.21
2022-09-20 12:24:06.484375,0.91
2022-09-20 12:24:06.500000,2.91
2022-09-20 12:24:06.515625,4.89
2022-09-20 12:24:06.531250,6.81
2022-09-20 12:24:06.546875,8.52
2022-09-20 12:24:06.562500,9.82
2022-09-20 12:24:06.578125,10.6
2022-09-20 12:24:06.593750,10.91
2022-09-20 12:24:06.609375,10.91
2022-09-20 12:24:06.625000,10.79
2022-09-20 12:24:06.640625,10.63
2022-09-20 12:24:06.656250,10.43
2022-09-20 12:24:06.671875,10.13
2022-09-20 12:24:06.687500,9.7
2022-09-20 12:24:06.703125,9.21
2022-09-20 12:24:06.718750,8.79
2022-09-20 12:24:06.734375,8.51
2022-09-20 12:24:06.750000,8.34
2022-09-20 12:24:06.765625,8.15
2022-09-20 12:24:06.781250,7.77
2022-09-20 12:24:06.796875,7.1
2022-09-20 12:24:06.812500,6.18
2022-09-20 12:24:06.828125,5.14
2022-09-20 12:24:06.843750,4.12
2022-09-20 12:24:06.859375,3.19
2022-09-20 12:24:06.875000,2.32
2022-09-20 12:24:06.890625,1.45
2022-09-20 12:24:06.906250,0.52
2022-09-20 12:24:06.921875,-0.51
2022-09-20 12:24:06.937500,-1.63
2022-09-20 12:24:06.953125,-2.84
2022-09-20 12:24:06.968750,-4.18
2022-09-20 12:24:06.984375,-5.66
2022-09-20 12:24:07.000000,-7.31
2022-09-20 12:24:07.015625,-9.09
2022-09-20 12:24:07.031250,-10.95
2022-09-20 12:24:07.046875,-12.78
2022-09-20 12:24:07.062500,-14.48
2022-09-20 12:24:07.078125,-15.93
2022-09-20 12:24:07.093750,-16.94
2022-09-20 12:24:07.109375,-17.31
2022-09-20 12:24:07.125000,-16.87
2022-09-20 12:24:07.140625,-15.54
2022-09-20 12:24:07.156250,-13.41
2022-09-20 12:24:07.171875,-10.69
2022-09-20 12:24:07.187500,-7.69
2022-09-20 12:24:07.203125,-4.65
2022-09-20 12:24:07.218750,-1.77
2022-09-20 12:24:07.234375,0.83
2022-09-20 12:24:07.250000,3.07
2022-09-20 12:24:07.265625,4.89
2022-09-20 12:24:07.281250,6.3
2022-09-20 12:24:07.296875,7.36
2022-09-20 12:24:07.312500,8.23
2022-09-20 12:24:07.328125,9.06
2022-09-20 12:24:07.343750,9.93
2022-09-20 12:24:07.359375,10.78
2022-09-20 12:24:07.375000,11.49
2022-09-20 12:24:07.390625,11.9
2022-09-20 12:24:07.406250,11.99
2022-09-20 12:24:07.421875,11.79
2022-09-20 12:24:07.437500,11.43
2022-09-20 12:24:07.453125,11.01
2022-09-20 12:24:07.468750,10.59
2022-09-20 12:24:07.484375,10.15
2022-09-20 12:24:07.500000,9.67
2022-09-20 12:24:07.515625,9.15
2022-09-20 12:24:07.531250,8.61
2022-09-20 12:24:07.546875,8.1
2022-09-20 12:24:07.562500,7.63
2022-09-20 12:24:07.578125,7.13
2022-09-20 12:24:07.593750,6.51
2022-09-20 12:24:07.609375,5.68
2022-09-20 12:24:07.625000,4.6
2022-09-20 12:24:07.640625,3.29
2022-09-20 12:24:07.656250,1.84
2022-09-20 12:24:07.671875,0.38
2022-09-20 12:24:07.687500,-0.96
2022-09-20 12:24:07.703125,-2.12
2022-09-20 12:24:07.718750,-3.14
2022-09-20 12:24:07.734375,-4.07
2022-09-20 12:24:07.750000,-5.02
2022-09-20 12:24:07.765625,-6.06
2022-09-20 12:24:07.781250,-7.25
2022-09-20 12:24:07.796875,-8.62
2022-09-20 12:24:07.812500,-10.17
2022-09-20 12:24:07.828125,-11.92
2022-09-20 12:24:07.843750,-13.8
2022-09-20 12:24:07.859375,-15.68
2022-09-20 12:24:07.875000,-17.33
2022-09-20 12:24:07.890625,-18.46
2022-09-20 12:24:07.906250,-18.8
2022-09-20 12:24:07.921875,-18.16
2022-09-20 12:24:07.937500,-16.57
2022-09-20 12:24:07.953125,-14.2
2022-09-20 12:24:07.968750,-11.36
2022-09-20 12:24:07.984375,-8.35
2022-09-20 12:24:08.000000,-5.42
2022-09-20 12:24:08.015625,-2.66
2022-09-20 12:24:08.031250,-0.09
2022-09-20 12:24:08.046875,2.27
2022-09-20 12:24:08.062500,4.37
2022-09-20 12:24:08.078125,6.1
2022-09-20 12:24:08.093750,7.38
2022-09-20 12:24:08.109375,8.17
2022-09-20 12:24:08.125000,8.57
2022-09-20 12:24:08.140625,8.74
2022-09-20 12:24:08.156250,8.82
2022-09-20 12:24:08.171875,8.9
2022-09-20 12:24:08.187500,8.98
2022-09-20 12:24:08.203125,8.99
2022-09-20 12:24:08.218750,8.9
2022-09-20 12:24:08.234375,8.68
2022-09-20 12:24:08.250000,8.35
2022-09-20 12:24:08.265625,7.92
2022-09-20 12:24:08.281250,7.37
2022-09-20 12:24:08.296875,6.68
2022-09-20 12:24:08.312500,5.86
2022-09-20 12:24:08.328125,4.98
2022-09-20 12:24:08.343750,4.14
2022-09-20 12:24:08.359375,3.45
2022-09-20 12:24:08.375000,2.94
2022-09-20 12:24:08.390625,2.52
2022-09-20 12:24:08.406250,2.04
2022-09-20 12:24:08.421875,1.35
2022-09-20 12:24:08.437500,0.37
2022-09-20 12:24:08.453125,-0.86
2022-09-20 12:24:08.468750,-2.19
2022-09-20 12:24:08.484375,-3.45
2022-09-20 12:24:08.500000,-4.54
2022-09-20 12:24:08.515625,-5.53
2022-09-20 12:24:08.531250,-6.57
2022-09-20 12:24:08.546875,-7.85
2022-09-20 12:24:08.562500,-9.46
2022-09-20 12:24:08.578125,-11.29
2022-09-20 12:24:08.593750,-13.07
2022-09-20 12:24:08.609375,-14.44
2022-09-20 12:24:08.625000,-15.11
2022-09-20 12:24:08.640625,-14.9
2022-09-20 12:24:08.656250,-13.79
2022-09-20 12:24:08.671875,-11.89
2022-09-20 12:24:08.687500,-9.4
2022-09-20 12:24:08.703125,-6.54
2022-09-20 12:24:08.718750,-3.51
2022-09-20 12:24:08.734375,-0.52
2022-09-20 12:24:08.750000,2.27
2022-09-20 12:24:08.765625,4.74
2022-09-20 12:24:08.781250,6.83
2022-09-20 12:24:08.796875,8.53
2022-09-20 12:24:08.812500,9.85
2022-09-20 12:24:08.828125,10.81
2022-09-20 12:24:08.843750,11.42
2022-09-20 12:24:08.859375,11.71
2022-09-20 12:24:08.875000,11.73
2022-09-20 12:24:08.890625,11.58
2022-09-20 12:24:08.906250,11.36
2022-09-20 12:24:08.921875,11.14
2022-09-20 12:24:08.937500,10.9
2022-09-20 12:24:08.953125,10.58
2022-09-20 12:24:08.968750,10.11
2022-09-20 12:24:08.984375,9.46
2022-09-20 12:24:09.000000,8.69
2022-09-20 12:24:09.015625,7.91
2022-09-20 12:24:09.031250,7.25
2022-09-20 12:24:09.046875,6.75
2022-09-20 12:24:09.062500,6.38
2022-09-20 12:24:09.078125,6.04
2022-09-20 12:24:09.093750,5.59
2022-09-20 12:24:09.109375,4.89
2022-09-20 12:24:09.125000,3.87
2022-09-20 12:24:09.140625,2.55
2022-09-20 12:24:09.156250,1.05
2022-09-20 12:24:09.171875,-0.48
2022-09-20 12:24:09.187500,-1.9
2022-09-20 12:24:09.203125,-3.15
2022-09-20 12:24:09.218750,-4.29
2022-09-20 12:24:09.234375,-5.42
2022-09-20 12:24:09.250000,-6.7
2022-09-20 12:24:09.265625,-8.22
2022-09-20 12:24:09.281250,-10.0
2022-09-20 12:24:09.296875,-11.97
2022-09-20 12:24:09.312500,-13.98
2022-09-20 12:24:09.328125,-15.84
2022-09-20 12:24:09.343750,-17.27
2022-09-20 12:24:09.359375,-17.96
2022-09-20 12:24:09.375000,-17.67
2022-09-20 12:24:09.390625,-16.29
2022-09-20 12:24:09.406250,-13.93
2022-09-20 12:24:09.421875,-10.93
2022-09-20 12:24:09.437500,-7.7
2022-09-20 12:24:09.453125,-4.6
2022-09-20 12:24:09.468750,-1.79
2022-09-20 12:24:09.484375,0.75
2022-09-20 12:24:09.500000,3.15
2022-09-20 12:24:09.515625,5.44
2022-09-20 12:24:09.531250,7.52
2022-09-20 12:24:09.546875,9.19
2022-09-20 12:24:09.562500,10.25
2022-09-20 12:24:09.578125,10.63
2022-09-20 12:24:09.593750,10.43
2022-09-20 12:24:09.609375,9.9
2022-09-20 12:24:09.625000,9.31
2022-09-20 12:24:09.640625,8.86
2022-09-20 12:24:09.656250,8.61
2022-09-20 12:24:09.671875,8.48
2022-09-20 12:24:09.687500,8.33
2022-09-20 12:24:09.703125,8.04
2022-09-20 12:24:09.718750,7.55
2022-09-20 12:24:09.734375,6.87
2022-09-20 12:24:09.750000,6.09
2022-09-20 12:24:09.765625,5.31
2022-09-20 12:24:09.781250,4.62
2022-09-20 12:24:09.796875,4.06
2022-09-20 12:24:09.812500,3.6
2022-09-20 12:24:09.828125,3.15
2022-09-20 12:24:09.843750,2.61
2022-09-20 12:24:09.859375,1.9
2022-09-20 12:24:09.875000,1.04
2022-09-20 12:24:09.890625,0.08
2022-09-20 12:24:09.906250,-0.87
2022-09-20 12:24:09.921875,-1.75
2022-09-20 12:24:09.937500,-2.6
2022-09-20 12:24:09.953125,-3.51
2022-09-20 12:24:09.968750,-4.63
2022-09-20 12:24:09.984375,-6.05
2022-09-20 12:24:10.000000,-7.76
2022-09-20 12:24:10.015625,-9.68
2022-09-20 12:24:10.031250,-11.65
2022-09-20 12:24:10.046875,-13.5
2022-09-20 12:24:10.062500,-15.05
2022-09-20 12:24:10.078125,-16.12
2022-09-20 12:24:10.093750,-16.54
2022-09-20 12:24:10.109375,-16.15
2022-09-20 12:24:10.125000,-14.92
2022-09-20 12:24:10.140625,-12.93
2022-09-20 12:24:10.156250,-10.41
2022-09-20 12:24:10.171875,-7.62
2022-09-20 12:24:10.187500,-4.8
2022-09-20 12:24:10.203125,-2.1
2022-09-20 12:24:10.218750,0.43
2022-09-20 12:24:10.234375,2.77
2022-09-20 12:24:10.250000,4.9
2022-09-20 12:24:10.265625,6.77
2022-09-20 12:24:10.281250,8.29
2022-09-20 12:24:10.296875,9.43
2022-09-20 12:24:10.312500,10.19
2022-09-20 12:24:10.328125,10.62
2022-09-20 12:24:10.343750,10.81
2022-09-20 12:24:10.359375,10.79
2022-09-20 12:24:10.375000,10.63
2022-09-20 12:24:10.390625,10.36
2022-09-20 12:24:10.406250,10.04
2022-09-20 12:24:10.421875,9.72
2022-09-20 12:24:10.437500,9.44
2022-09-20 12:24:10.453125,9.21
2022-09-20 12:24:10.468750,8.98
2022-09-20 12:24:10.484375,8.69
2022-09-20 12:24:10.500000,8.29
2022-09-20 12:24:10.515625,7.74
2022-09-20 12:24:10.531250,7.07
2022-09-20 12:24:10.546875,6.28
2022-09-20 12:24:10.562500,5.4
2022-09-20 12:24:10.578125,4.44
2022-09-20 12:24:10.593750,3.43
2022-09-20 12:24:10.609375,2.4
2022-09-20 12:24:10.625000,1.38
2022-09-20 12:24:10.640625,0.41
2022-09-20 12:24:10.656250,-0.5
2022-09-20 12:24:10.671875,-1.37
2022-09-20 12:24:10.687500,-2.25
2022-09-20 12:24:10.703125,-3.21
2022-09-20 12:24:10.718750,-4.36
2022-09-20 12:24:10.734375,-5.78
2022-09-20 12:24:10.750000,-7.53
2022-09-20 12:24:10.765625,-9.58
2022-09-20 12:24:10.781250,-11.77
2022-09-20 12:24:10.796875,-13.86
2022-09-20 12:24:10.812500,-15.55
2022-09-20 12:24:10.828125,-16.57
2022-09-20 12:24:10.843750,-16.74
2022-09-20 12:24:10.859375,-15.99
2022-09-20 12:24:10.875000,-14.4
2022-09-20 12:24:10.890625,-12.13
2022-09-20 12:24:10.906250,-9.41
2022-09-20 12:24:10.921875,-6.47
2022-09-20 12:24:10.937500,-3.51
2022-09-20 12:24:10.953125,-0.67
2022-09-20 12:24:10.968750,1.95
2022-09-20 12:24:10.984375,4.29
2022-09-20 12:24:11.000000,6.3
2022-09-20 12:24:11.015625,7.87
2022-09-20 12:24:11.031250,8.91
2022-09-20 12:24:11.046875,9.39
2022-09-20 12:24:11.062500,9.38
2022-09-20 12:24:11.078125,9.09
2022-09-20 12:24:11.093750,8.76
2022-09-20 12:24:11.109375,8.54
2022-09-20 12:24:11.125000,8.47
2022-09-20 12:24:11.140625,8.43
2022-09-20 12:24:11.156250,8.27
2022-09-20 12:24:11.171875,7.91
2022-09-20 12:24:11.187500,7.36
2022-09-20 12:24:11.203125,6.71
2022-09-20 12:24:11.218750,6.07
2022-09-20 12:24:11.234375,5.46
2022-09-20 12:24:11.250000,4.89
2022-09-20 12:24:11.265625,4.3
2022-09-20 12:24:11.281250,3.69
2022-09-20 12:24:11.296875,3.1
2022-09-20 12:24:11.312500,2.52
2022-09-20 12:24:11.328125,1.92
2022-09-20 12:24:11.343750,1.22
2022-09-20 12:24:11.359375,0.33
2022-09-20 12:24:11.375000,-0.77
2022-09-20 12:24:11.390625,-1.99
2022-09-20 12:24:11.406250,-3.23
2022-09-20 12:24:11.421875,-4.39
2022-09-20 12:24:11.437500,-5.47
2022-09-20 12:24:11.453125,-6.62
2022-09-20 12:24:11.468750,-7.99
2022-09-20 12:24:11.484375,-9.71
2022-09-20 12:24:11.500000,-11.74
2022-09-20 12:24:11.515625,-13.87
2022-09-20 12:24:11.531250,-15.72
2022-09-20 12:24:11.546875,-16.91
2022-09-20 12:24:11.562500,-17.14
2022-09-20 12:24:11.578125,-16.33
2022-09-20 12:24:11.593750,-14.59
2022-09-20 12:24:11.609375,-12.18
2022-09-20 12:24:11.625000,-9.42
2022-09-20 12:24:11.640625,-6.55
2022-09-20 12:24:11.656250,-3.73
2022-09-20 12:24:11.671875,-1.03
2022-09-20 12:24:11.687500,1.44
2022-09-20 12:24:11.703125,3.57
2022-09-20 12:24:11.718750,5.21
2022-09-20 12:24:11.734375,6.27
2022-09-20 12:24:11.750000,6.78
2022-09-20 12:24:11.765625,6.86
2022-09-20 12:24:11.781250,6.71
2022-09-20 12:24:11.796875,6.51
2022-09-20 12:24:11.812500,6.34
2022-09-20 12:24:11.828125,6.17
2022-09-20 12:24:11.843750,5.9
2022-09-20 12:24:11.859375,5.36
2022-09-20 12:24:11.875000,4.43
2022-09-20 12:24:11.890625,3.11
2022-09-20 12:24:11.906250,1.49
2022-09-20 12:24:11.921875,-0.27
2022-09-20 12:24:11.937500,-1.93
2022-09-20 12:24:11.953125,-3.29
2022-09-20 12:24:11.968750,-4.26
2022-09-20 12:24:11.984375,-4.88
2022-09-20 12:24:12.000000,-5.37
2022-09-20 12:24:12.015625,-5.98
2022-09-20 12:24:12.031250,-6.96
2022-09-20 12:24:12.046875,-8.43
2022-09-20 12:24:12.062500,-10.37
2022-09-20 12:24:12.078125,-12.63
2022-09-20 12:24:12.093750,-14.99
2022-09-20 12:24:12.109375,-17.27
2022-09-20 12:24:12.125000,-19.35
2022-09-20 12:24:12.140625,-21.22
2022-09-20 12:24:12.156250,-22.92
2022-09-20 12:24:12.171875,-24.5
2022-09-20 12:24:12.187500,-26.03
2022-09-20 12:24:12.203125,-27.58
2022-09-20 12:24:12.218750,-29.2
2022-09-20 12:24:12.234375,-30.9
2022-09-20 12:24:12.250000,-32.59
2022-09-20 12:24:12.265625,-34.01
2022-09-20 12:24:12.281250,-34.83
2022-09-20 12:24:12.296875,-34.7
2022-09-20 12:24:12.312500,-33.44
2022-09-20 12:24:12.328125,-31.05
2022-09-20 12:24:12.343750,-27.77
2022-09-20 12:24:12.359375,-23.98
2022-09-20 12:24:12.375000,-20.05
2022-09-20 12:24:12.390625,-16.24
2022-09-20 12:24:12.406250,-12.62
2022-09-20 12:24:12.421875,-9.11
2022-09-20 12:24:12.437500,-5.58
2022-09-20 12:24:12.453125,-1.94
2022-09-20 12:24:12.468750,1.77
2022-09-20 12:24:12.484375,5.37
2022-09-20 12:24:12.500000,8.63
2022-09-20 12:24:12.515625,11.39
2022-09-20 12:24:12.531250,13.6
2022-09-20 12:24:12.546875,15.37
2022-09-20 12:24:12.562500,16.9
2022-09-20 12:24:12.578125,18.31
2022-09-20 12:24:12.593750,19.62
2022-09-20 12:24:12.609375,20.71
2022-09-20 12:24:12.625000,21.43
2022-09-20 12:24:12.640625,21.7
2022-09-20 12:24:12.656250,21.58
2022-09-20 12:24:12.671875,21.23
2022-09-20 12:24:12.687500,20.8
2022-09-20 12:24:12.703125,20.4
2022-09-20 12:24:12.718750,19.99
2022-09-20 12:24:12.734375,19.51
2022-09-20 12:24:12.750000,18.86
2022-09-20 12:24:12.765625,18.03
2022-09-20 12:24:12.781250,17.07
2022-09-20 12:24:12.796875,16.01
2022-09-20 12:24:12.812500,14.88
2022-09-20 12:24:12.828125,13.66
2022-09-20 12:24:12.843750,12.32
2022-09-20 12:24:12.859375,10.8
2022-09-20 12:24:12.875000,9.11
2022-09-20 12:24:12.890625,7.25
2022-09-20 12:24:12.906250,5.23
2022-09-20 12:24:12.921875,3.07
2022-09-20 12:24:12.937500,0.79
2022-09-20 12:24:12.953125,-1.59
2022-09-20 12:24:12.968750,-4.05
2022-09-20 12:24:12.984375,-6.55
2022-09-20 12:24:13.000000,-9.06
2022-09-20 12:24:13.015625,-11.42
2022-09-20 12:24:13.031250,-13.4
2022-09-20 12:24:13.046875,-14.68
2022-09-20 12:24:13.062500,-14.96
2022-09-20 12:24:13.078125,-14.04
2022-09-20 12:24:13.093750,-11.99
2022-09-20 12:24:13.109375,-9.05
2022-09-20 12:24:13.125000,-5.62
2022-09-20 12:24:13.140625,-2.09
2022-09-20 12:24:13.156250,1.29
2022-09-20 12:24:13.171875,4.37
2022-09-20 12:24:13.187500,7.12
2022-09-20 12:24:13.203125,9.51
2022-09-20 12:24:13.218750,11.46
2022-09-20 12:24:13.234375,12.92
2022-09-20 12:24:13.250000,13.86
2022-09-20 12:24:13.265625,14.35
2022-09-20 12:24:13.281250,14.53
2022-09-20 12:24:13.296875,14.57
2022-09-20 12:24:13.312500,14.59
2022-09-20 12:24:13.328125,14.58
2022-09-20 12:24:13.343750,14.43
2022-09-20 12:24:13.359375,14.03
2022-09-20 12:24:13.375000,13.32
2022-09-20 12:24:13.390625,12.39
2022-09-20 12:24:13.406250,11.42
2022-09-20 12:24:13.421875,10.65
2022-09-20 12:24:13.437500,10.19
2022-09-20 12:24:13.453125,10.01
2022-09-20 12:24:13.468750,9.85
2022-09-20 12:24:13.484375,9.44
2022-09-20 12:24:13.500000,8.55
2022-09-20 12:24:13.515625,7.12
2022-09-20 12:24:13.531250,5.29
2022-09-20 12:24:13.546875,3.3
2022-09-20 12:24:13.562500,1.35
2022-09-20 12:24:13.578125,-0.45
2022-09-20 12:24:13.593750,-2.13
2022-09-20 12:24:13.609375,-3.73
2022-09-20 12:24:13.625000,-5.3
2022-09-20 12:24:13.640625,-6.86
2022-09-20 12:24:13.656250,-8.46
2022-09-20 12:24:13.671875,-10.2
2022-09-20 12:24:13.687500,-12.24
2022-09-20 12:24:13.703125,-14.68
2022-09-20 12:24:13.718750,-17.44
2022-09-20 12:24:13.734375,-20.2
2022-09-20 12:24:13.750000,-22.47
2022-09-20 12:24:13.765625,-23.76
2022-09-20 12:24:13.781250,-23.71
2022-09-20 12:24:13.796875,-22.27
2022-09-20 12:24:13.812500,-19.64
2022-09-20 12:24:13.828125,-16.18
2022-09-20 12:24:13.843750,-12.26
2022-09-20 12:24:13.859375,-8.15
2022-09-20 12:24:13.875000,-4.01
2022-09-20 12:24:13.890625,0.06
2022-09-20 12:24:13.906250,3.96
2022-09-20 12:24:13.921875,7.58
2022-09-20 12:24:13.937500,10.77
2022-09-20 12:24:13.953125,13.4
2022-09-20 12:24:13.968750,15.42
2022-09-20 12:24:13.984375,16.8
2022-09-20 12:24:14.000000,17.62
2022-09-20 12:24:14.015625,17.96
2022-09-20 12:24:14.031250,17.91
2022-09-20 12:24:14.046875,17.53
2022-09-20 12:24:14.062500,16.87
2022-09-20 12:24:14.078125,15.92
2022-09-20 12:24:14.093750,14.71
2022-09-20 12:24:14.109375,13.31
2022-09-20 12:24:14.125000,11.86
2022-09-20 12:24:14.140625,10.52
2022-09-20 12:24:14.156250,9.41
2022-09-20 12:24:14.171875,8.56
2022-09-20 12:24:14.187500,7.88
2022-09-20 12:24:14.203125,7.2
2022-09-20 12:24:14.218750,6.33
2022-09-20 12:24:14.234375,5.15
2022-09-20 12:24:14.250000,3.65
2022-09-20 12:24:14.265625,1.88
2022-09-20 12:24:14.281250,0.02
2022-09-20 12:24:14.296875,-1.8
2022-09-20 12:24:14.312500,-3.47
2022-09-20 12:24:14.328125,-4.97
2022-09-20 12:24:14.343750,-6.35
2022-09-20 12:24:14.359375,-7.71
2022-09-20 12:24:14.375000,-9.2
2022-09-20 12:24:14.390625,-10.96
2022-09-20 12:24:14.406250,-13.07
2022-09-20 12:24:14.421875,-15.51
2022-09-20 12:24:14.437500,-18.18
2022-09-20 12:24:14.453125,-20.85
2022-09-20 12:24:14.468750,-23.19
2022-09-20 12:24:14.484375,-24.87
2022-09-20 12:24:14.500000,-25.55
2022-09-20 12:24:14.515625,-25.05
2022-09-20 12:24:14.531250,-23.33
2022-09-20 12:24:14.546875,-20.56
2022-09-20 12:24:14.562500,-17.09
2022-09-20 12:24:14.578125,-13.29
2022-09-20 12:24:14.593750,-9.51
2022-09-20 12:24:14.609375,-5.97
2022-09-20 12:24:14.625000,-2.77
2022-09-20 12:24:14.640625,0.13
2022-09-20 12:24:14.656250,2.8
2022-09-20 12:24:14.671875,5.31
2022-09-20 12:24:14.687500,7.67
2022-09-20 12:24:14.703125,9.88
2022-09-20 12:24:14.718750,11.87
2022-09-20 12:24:14.734375,13.58
2022-09-20 12:24:14.750000,14.94
2022-09-20 12:24:14.765625,15.94
2022-09-20 12:24:14.781250,16.6
2022-09-20 12:24:14.796875,17.01
2022-09-20 12:24:14.812500,17.26
2022-09-20 12:24:14.828125,17.42
2022-09-20 12:24:14.843750,17.51
2022-09-20 12:24:14.859375,17.5
2022-09-20 12:24:14.875000,17.31
2022-09-20 12:24:14.890625,16.89
2022-09-20 12:24:14.906250,16.24
2022-09-20 12:24:14.921875,15.41
2022-09-20 12:24:14.937500,14.47
2022-09-20 12:24:14.953125,13.47
2022-09-20 12:24:14.968750,12.39
2022-09-20 12:24:14.984375,11.15
2022-09-20 12:24:15.000000,9.67
2022-09-20 12:24:15.015625,7.88
2022-09-20 12:24:15.031250,5.8
2022-09-20 12:24:15.046875,3.52
2022-09-20 12:24:15.062500,1.16
2022-09-20 12:24:15.078125,-1.14
2022-09-20 12:24:15.093750,-3.33
2022-09-20 12:24:15.109375,-5.44
2022-09-20 12:24:15.125000,-7.56
2022-09-20 12:24:15.140625,-9.83
2022-09-20 12:24:15.156250,-12.36
2022-09-20 12:24:15.171875,-15.18
2022-09-20 12:24:15.187500,-18.2
2022-09-20 12:24:15.203125,-21.2
2022-09-20 12:24:15.218750,-23.85
2022-09-20 12:24:15.234375,-25.77
2022-09-20 12:24:15.250000,-26.59
2022-09-20 12:24:15.265625,-26.02
2022-09-20 12:24:15.281250,-23.94
2022-09-20 12:24:15.296875,-20.45
2022-09-20 12:24:15.312500,-15.9
2022-09-20 12:24:15.328125,-10.76
2022-09-20 12:24:15.343750,-5.54
2022-09-20 12:24:15.359375,-0.59
2022-09-20 12:24:15.375000,3.88
2022-09-20 12:24:15.390625,7.84
2022-09-20 12:24:15.406250,11.28
2022-09-20 12:24:15.421875,14.16
2022-09-20 12:24:15.437500,16.38
2022-09-20 12:24:15.453125,17.89
2022-09-20 12:24:15.468750,18.72
2022-09-20 12:24:15.484375,19.06
2022-09-20 12:24:15.500000,19.16
2022-09-20 12:24:15.515625,19.21
2022-09-20 12:24:15.531250,19.28
2022-09-20 12:24:15.546875,19.31
2022-09-20 12:24:15.562500,19.14
2022-09-20 12:24:15.578125,18.68
2022-09-20 12:24:15.593750,17.95
2022-09-20 12:24:15.609375,17.08
2022-09-20 12:24:15.625000,16.24
2022-09-20 12:24:15.640625,15.55
2022-09-20 12:24:15.656250,15.02
2022-09-20 12:24:15.671875,14.56
2022-09-20 12:24:15.687500,13.99
2022-09-20 12:24:15.703125,13.15
2022-09-20 12:24:15.718750,11.96
2022-09-20 12:24:15.734375,10.43
2022-09-20 12:24:15.750000,8.68
2022-09-20 12:24:15.765625,6.82
2022-09-20 12:24:15.781250,4.98
2022-09-20 12:24:15.796875,3.2
2022-09-20 12:24:15.812500,1.48
2022-09-20 12:24:15.828125,-0.24
2022-09-20 12:24:15.843750,-2.02
2022-09-20 12:24:15.859375,-3.95
2022-09-20 12:24:15.875000,-6.06
2022-09-20 12:24:15.890625,-8.36
2022-09-20 12:24:15.906250,-10.77
2022-09-20 12:24:15.921875,-13.07
2022-09-20 12:24:15.937500,-15.0
2022-09-20 12:24:15.953125,-16.23
2022-09-20 12:24:15.968750,-16.49
2022-09-20 12:24:15.984375,-15.67
2022-09-20 12:24:16.000000,-13.83
2022-09-20 12:24:16.015625,-11.16
2022-09-20 12:24:16.031250,-7.93
2022-09-20 12:24:16.046875,-4.39
2022-09-20 12:24:16.062500,-0.71
2022-09-20 12:24:16.078125,2.99
2022-09-20 12:24:16.093750,6.58
2022-09-20 12:24:16.109375,9.87
2022-09-20 12:24:16.125000,12.62
2022-09-20 12:24:16.140625,14.61
2022-09-20 12:24:16.156250,15.76
2022-09-20 12:24:16.171875,16.18
2022-09-20 12:24:16.187500,16.16
2022-09-20 12:24:16.203125,16.03
2022-09-20 12:24:16.218750,16.02
2022-09-20 12:24:16.234375,16.18
2022-09-20 12:24:16.250000,16.38
2022-09-20 12:24:16.265625,16.39
2022-09-20 12:24:16.281250,16.03
2022-09-20 12:24:16.296875,15.22
2022-09-20 12:24:16.312500,14.02
2022-09-20 12:24:16.328125,12.58
2022-09-20 12:24:16.343750,11.13
2022-09-20 12:24:16.359375,9.84
2022-09-20 12:24:16.375000,8.8
2022-09-20 12:24:16.390625,7.97
2022-09-20 12:24:16.406250,7.24
2022-09-20 12:24:16.421875,6.46
2022-09-20 12:24:16.437500,5.53
2022-09-20 12:24:16.453125,4.45
2022-09-20 12:24:16.468750,3.27
2022-09-20 12:24:16.484375,2.04
2022-09-20 12:24:16.500000,0.72
2022-09-20 12:24:16.515625,-0.72
2022-09-20 12:24:16.531250,-2.33
2022-09-20 12:24:16.546875,-4.07
2022-09-20 12:24:16.562500,-5.81
2022-09-20 12:24:16.578125,-7.47
2022-09-20 12:24:16.593750,-9.03
2022-09-20 12:24:16.609375,-10.62
2022-09-20 12:24:16.625000,-12.41
2022-09-20 12:24:16.640625,-14.46
2022-09-20 12:24:16.656250,-16.6
2022-09-20 12:24:16.671875,-18.39
2022-09-20 12:24:16.687500,-19.35
2022-09-20 12:24:16.703125,-19.04
2022-09-20 12:24:16.718750,-17.3
2022-09-20 12:24:16.734375,-14.28
2022-09-20 12:24:16.750000,-10.37
2022-09-20 12:24:16.765625,-6.03
2022-09-20 12:24:16.781250,-1.69
2022-09-20 12:24:16.796875,2.32
2022-09-20 12:24:16.812500,5.84
2022-09-20 12:24:16.828125,8.82
2022-09-20 12:24:16.843750,11.28
2022-09-20 12:24:16.859375,13.27
2022-09-20 12:24:16.875000,14.82
2022-09-20 12:24:16.890625,15.96
2022-09-20 12:24:16.906250,16.71
2022-09-20 12:24:16.921875,17.13
2022-09-20 12:24:16.937500,17.32
2022-09-20 12:24:16.953125,17.41
2022-09-20 12:24:16.968750,17.53
2022-09-20 12:24:16.984375,17.7
2022-09-20 12:24:17.000000,17.84
2022-09-20 12:24:17.015625,17.81
2022-09-20 12:24:17.031250,17.51
2022-09-20 12:24:17.046875,16.97
2022-09-20 12:24:17.062500,16.31
2022-09-20 12:24:17.078125,15.7
2022-09-20 12:24:17.093750,15.23
2022-09-20 12:24:17.109375,14.8
2022-09-20 12:24:17.125000,14.21
2022-09-20 12:24:17.140625,13.22
2022-09-20 12:24:17.156250,11.71
2022-09-20 12:24:17.171875,9.77
2022-09-20 12:24:17.187500,7.64
2022-09-20 12:24:17.203125,5.58
2022-09-20 12:24:17.218750,3.77
2022-09-20 12:24:17.234375,2.21
2022-09-20 12:24:17.250000,0.77
2022-09-20 12:24:17.265625,-0.7
2022-09-20 12:24:17.281250,-2.32
2022-09-20 12:24:17.296875,-4.06
2022-09-20 12:24:17.312500,-5.88
2022-09-20 12:24:17.328125,-7.76
2022-09-20 12:24:17.343750,-9.73
2022-09-20 12:24:17.359375,-11.86
2022-09-20 12:24:17.375000,-14.15
2022-09-20 12:24:17.390625,-16.41
2022-09-20 12:24:17.406250,-18.26
2022-09-20 12:24:17.421875,-19.25
2022-09-20 12:24:17.437500,-19.0
2022-09-20 12:24:17.453125,-17.41
2022-09-20 12:24:17.468750,-14.67
2022-09-20 12:24:17.484375,-11.24
2022-09-20 12:24:17.500000,-7.58
2022-09-20 12:24:17.515625,-4.07
2022-09-20 12:24:17.531250,-0.86
2022-09-20 12:24:17.546875,2.08
2022-09-20 12:24:17.562500,4.79
2022-09-20 12:24:17.578125,7.27
2022-09-20 12:24:17.593750,9.39
2022-09-20 12:24:17.609375,10.99
2022-09-20 12:24:17.625000,11.96
2022-09-20 12:24:17.640625,12.35
2022-09-20 12:24:17.656250,12.31
2022-09-20 12:24:17.671875,12.09
2022-09-20 12:24:17.687500,11.88
2022-09-20 12:24:17.703125,11.76
2022-09-20 12:24:17.718750,11.66
2022-09-20 12:24:17.734375,11.46
2022-09-20 12:24:17.750000,11.06
2022-09-20 12:24:17.765625,10.46
2022-09-20 12:24:17.781250,9.75
2022-09-20 12:24:17.796875,9.07
2022-09-20 12:24:17.812500,8.51
2022-09-20 12:24:17.828125,8.11
2022-09-20 12:24:17.843750,7.79
2022-09-20 12:24:17.859375,7.41
2022-09-20 12:24:17.875000,6.83
2022-09-20 12:24:17.890625,5.95
2022-09-20 12:24:17.906250,4.83
2022-09-20 12:24:17.921875,3.58
2022-09-20 12:24:17.937500,2.34
2022-09-20 12:24:17.953125,1.18
2022-09-20 12:24:17.968750,0.09
2022-09-20 12:24:17.984375,-1.01
2022-09-20 12:24:18.000000,-2.22
2022-09-20 12:24:18.015625,-3.56
2022-09-20 12:24:18.031250,-5.0
2022-09-20 12:24:18.046875,-6.48
2022-09-20 12:24:18.062500,-7.99
2022-09-20 12:24:18.078125,-9.55
2022-09-20 12:24:18.093750,-11.17
2022-09-20 12:24:18.109375,-12.78
2022-09-20 12:24:18.125000,-14.2
2022-09-20 12:24:18.140625,-15.17
2022-09-20 12:24:18.156250,-15.45
2022-09-20 12:24:18.171875,-14.91
2022-09-20 12:24:18.187500,-13.59
2022-09-20 12:24:18.203125,-11.66
2022-09-20 12:24:18.218750,-9.34
2022-09-20 12:24:18.234375,-6.85
2022-09-20 12:24:18.250000,-4.35
2022-09-20 12:24:18.265625,-1.94
2022-09-20 12:24:18.281250,0.27
2022-09-20 12:24:18.296875,2.19
2022-09-20 12:24:18.312500,3.73
2022-09-20 12:24:18.328125,4.79
2022-09-20 12:24:18.343750,5.36
2022-09-20 12:24:18.359375,5.5
2022-09-20 12:24:18.375000,5.34
2022-09-20 12:24:18.390625,5.07
2022-09-20 12:24:18.406250,4.87
2022-09-20 12:24:18.421875,4.82
2022-09-20 12:24:18.437500,4.88
2022-09-20 12:24:18.453125,4.88
2022-09-20 12:24:18.468750,4.68
2022-09-20 12:24:18.484375,4.17
2022-09-20 12:24:18.500000,3.42
2022-09-20 12:24:18.515625,2.58
2022-09-20 12:24:18.531250,1.85
2022-09-20 12:24:18.546875,1.35
2022-09-20 12:24:18.562500,1.01
2022-09-20 12:24:18.578125,0.66
2022-09-20 12:24:18.593750,0.14
2022-09-20 12:24:18.609375,-0.64
2022-09-20 12:24:18.625000,-1.64
2022-09-20 12:24:18.640625,-2.72
2022-09-20 12:24:18.656250,-3.74
2022-09-20 12:24:18.671875,-4.68
2022-09-20 12:24:18.687500,-5.59
2022-09-20 12:24:18.703125,-6.59
2022-09-20 12:24:18.718750,-7.72
2022-09-20 12:24:18.734375,-8.96
2022-09-20 12:24:18.750000,-10.19
2022-09-20 12:24:18.765625,-11.27
2022-09-20 12:24:18.781250,-12.11
2022-09-20 12:24:18.796875,-12.66
2022-09-20 12:24:18.812500,-12.94
2022-09-20 12:24:18.828125,-12.92
2022-09-20 12:24:18.843750,-12.58
2022-09-20 12:24:18.859375,-11.92
2022-09-20 12:24:18.875000,-10.93
2022-09-20 12:24:18.890625,-9.65
2022-09-20 12:24:18.906250,-8.16
2022-09-20 12:24:18.921875,-6.56
2022-09-20 12:24:18.937500,-4.91
2022-09-20 12:24:18.953125,-3.3
2022-09-20 12:24:18.968750,-1.76
2022-09-20 12:24:18.984375,-0.34
2022-09-20 12:24:19.000000,0.9
2022-09-20 12:24:19.015625,1.91
2022-09-20 12:24:19.031250,2.65
2022-09-20 12:24:19.046875,3.11
2022-09-20 12:24:19.062500,3.31
2022-09-20 12:24:19.078125,3.32
2022-09-20 12:24:19.093750,3.21
2022-09-20 12:24:19.109375,3.06
2022-09-20 12:24:19.125000,2.94
2022-09-20 12:24:19.140625,2.83
2022-09-20 12:24:19.156250,2.7
2022-09-20 12:24:19.171875,2.46
2022-09-20 12:24:19.187500,2.04
2022-09-20 12:24:19.203125,1.44
2022-09-20 12:24:19.218750,0.68
2022-09-20 12:24:19.234375,-0.16
2022-09-20 12:24:19.250000,-1.02
2022-09-20 12:24:19.265625,-1.84
2022-09-20 12:24:19.281250,-2.63
2022-09-20 12:24:19.296875,-3.35
2022-09-20 12:24:19.312500,-4.0
2022-09-20 12:24:19.328125,-4.6
2022-09-20 12:24:19.343750,-5.2
2022-09-20 12:24:19.359375,-5.94
2022-09-20 12:24:19.375000,-6.96
2022-09-20 12:24:19.390625,-8.36
2022-09-20 12:24:19.406250,-10.11
2022-09-20 12:24:19.421875,-12.09
2022-09-20 12:24:19.437500,-14.05
2022-09-20 12:24:19.453125,-15.75
2022-09-20 12:24:19.468750,-16.99
2022-09-20 12:24:19.484375,-17.65
2022-09-20 12:24:19.500000,-17.68
2022-09-20 12:24:19.515625,-17.06
2022-09-20 12:24:19.531250,-15.82
2022-09-20 12:24:19.546875,-14.04
2022-09-20 12:24:19.562500,-11.87
2022-09-20 12:24:19.578125,-9.48
2022-09-20 12:24:19.593750,-7.05
2022-09-20 12:24:19.609375,-4.7
2022-09-20 12:24:19.625000,-2.49
2022-09-20 12:24:19.640625,-0.41
2022-09-20 12:24:19.656250,1.52
2022-09-20 12:24:19.671875,3.26
2022-09-20 12:24:19.687500,4.77
2022-09-20 12:24:19.703125,5.98
2022-09-20 12:24:19.718750,6.89
2022-09-20 12:24:19.734375,7.49
2022-09-20 12:24:19.750000,7.77
2022-09-20 12:24:19.765625,7.69
2022-09-20 12:24:19.781250,7.23
2022-09-20 12:24:19.796875,6.41
2022-09-20 12:24:19.812500,5.35
2022-09-20 12:24:19.828125,4.31
2022-09-20 12:24:19.843750,3.52
2022-09-20 12:24:19.859375,3.12
2022-09-20 12:24:19.875000,3.1
2022-09-20 12:24:19.890625,3.24
2022-09-20 12:24:19.906250,3.29
2022-09-20 12:24:19.921875,3.01
2022-09-20 12:24:19.937500,2.32
2022-09-20 12:24:19.953125,1.27
2022-09-20 12:24:19.968750,-0.01
2022-09-20 12:24:19.984375,-1.34
2022-09-20 12:24:20.000000,-2.57
2022-09-20 12:24:20.015625,-3.64
2022-09-20 12:24:20.031250,-4.55
2022-09-20 12:24:20.046875,-5.4
2022-09-20 12:24:20.062500,-6.36
2022-09-20 12:24:20.078125,-7.58
2022-09-20 12:24:20.093750,-9.18
2022-09-20 12:24:20.109375,-11.16
2022-09-20 12:24:20.125000,-13.42
2022-09-20 12:24:20.140625,-15.71
2022-09-20 12:24:20.156250,-17.75
2022-09-20 12:24:20.171875,-19.25
2022-09-20 12:24:20.187500,-19.96
2022-09-20 12:24:20.203125,-19.73
2022-09-20 12:24:20.218750,-18.55
2022-09-20 12:24:20.234375,-16.55
2022-09-20 12:24:20.250000,-13.99
2022-09-20 12:24:20.265625,-11.18
2022-09-20 12:24:20.281250,-8.41
2022-09-20 12:24:20.296875,-5.81
2022-09-20 12:24:20.312500,-3.46
2022-09-20 12:24:20.328125,-1.32
2022-09-20 12:24:20.343750,0.58
2022-09-20 12:24:20.359375,2.19
2022-09-20 12:24:20.375000,3.43
2022-09-20 12:24:20.390625,4.27
2022-09-20 12:24:20.406250,4.75
2022-09-20 12:24:20.421875,4.97
2022-09-20 12:24:20.437500,5.08
2022-09-20 12:24:20.453125,5.16
2022-09-20 12:24:20.468750,5.25
2022-09-20 12:24:20.484375,5.29
2022-09-20 12:24:20.500000,5.22
2022-09-20 12:24:20.515625,5.02
2022-09-20 12:24:20.531250,4.71
2022-09-20 12:24:20.546875,4.37
2022-09-20 12:24:20.562500,4.02
2022-09-20 12:24:20.578125,3.69
2022-09-20 12:24:20.593750,3.32
2022-09-20 12:24:20.609375,2.82
2022-09-20 12:24:20.625000,2.09
2022-09-20 12:24:20.640625,1.12
2022-09-20 12:24:20.656250,-0.05
2022-09-20 12:24:20.671875,-1.27
2022-09-20 12:24:20.687500,-2.39
2022-09-20 12:24:20.703125,-3.31
2022-09-20 12:24:20.718750,-4.0
2022-09-20 12:24:20.734375,-4.56
2022-09-20 12:24:20.750000,-5.19
2022-09-20 12:24:20.765625,-6.06
2022-09-20 12:24:20.781250,-7.35
2022-09-20 12:24:20.796875,-9.09
2022-09-20 12:24:20.812500,-11.22
2022-09-20 12:24:20.828125,-13.49
2022-09-20 12:24:20.843750,-15.56
2022-09-20 12:24:20.859375,-17.02
2022-09-20 12:24:20.875000,-17.56
2022-09-20 12:24:20.890625,-17.0
2022-09-20 12:24:20.906250,-15.37
2022-09-20 12:24:20.921875,-12.9
2022-09-20 12:24:20.937500,-9.88
2022-09-20 12:24:20.953125,-6.64
2022-09-20 12:24:20.968750,-3.43
2022-09-20 12:24:20.984375,-0.38
2022-09-20 12:24:21.000000,2.41
2022-09-20 12:24:21.015625,4.89
2022-09-20 12:24:21.031250,7.01
2022-09-20 12:24:21.046875,8.76
2022-09-20 12:24:21.062500,10.12
2022-09-20 12:24:21.078125,11.08
2022-09-20 12:24:21.093750,11.68
2022-09-20 12:24:21.109375,12.0
2022-09-20 12:24:21.125000,12.15
2022-09-20 12:24:21.140625,12.27
2022-09-20 12:24:21.156250,12.42
2022-09-20 12:24:21.171875,12.62
2022-09-20 12:24:21.187500,12.79
2022-09-20 12:24:21.203125,12.85
2022-09-20 12:24:21.218750,12.75
2022-09-20 12:24:21.234375,12.53
2022-09-20 12:24:21.250000,12.31
2022-09-20 12:24:21.265625,12.15
2022-09-20 12:24:21.281250,12.03
2022-09-20 12:24:21.296875,11.84
2022-09-20 12:24:21.312500,11.38
2022-09-20 12:24:21.328125,10.55
2022-09-20 12:24:21.343750,9.35
2022-09-20 12:24:21.359375,7.98
2022-09-20 12:24:21.375000,6.69
2022-09-20 12:24:21.390625,5.67
2022-09-20 12:24:21.406250,4.96
2022-09-20 12:24:21.421875,4.38
2022-09-20 12:24:21.437500,3.65
2022-09-20 12:24:21.453125,2.5
2022-09-20 12:24:21.468750,0.79
2022-09-20 12:24:21.484375,-1.45
2022-09-20 12:24:21.500000,-3.99
2022-09-20 12:24:21.515625,-6.51
2022-09-20 12:24:21.531250,-8.66
2022-09-20 12:24:21.546875,-10.15
2022-09-20 12:24:21.562500,-10.78
2022-09-20 12:24:21.578125,-10.48
2022-09-20 12:24:21.593750,-9.29
2022-09-20 12:24:21.609375,-7.36
2022-09-20 12:24:21.625000,-4.91
2022-09-20 12:24:21.640625,-2.19
2022-09-20 12:24:21.656250,0.57
2022-09-20 12:24:21.671875,3.21
2022-09-20 12:24:21.687500,5.67
2022-09-20 12:24:21.703125,7.92
2022-09-20 12:24:21.718750,9.92
2022-09-20 12:24:21.734375,11.61
2022-09-20 12:24:21.750000,12.88
2022-09-20 12:24:21.765625,13.63
2022-09-20 12:24:21.781250,13.81
2022-09-20 12:24:21.796875,13.47
2022-09-20 12:24:21.812500,12.71
2022-09-20 12:24:21.828125,11.65
2022-09-20 12:24:21.843750,10.37
2022-09-20 12:24:21.859375,8.93
2022-09-20 12:24:21.875000,7.34
2022-09-20 12:24:21.890625,5.66
2022-09-20 12:24:21.906250,3.98
2022-09-20 12:24:21.921875,2.43
2022-09-20 12:24:21.937500,1.12
2022-09-20 12:24:21.953125,0.12
2022-09-20 12:24:21.968750,-0.57
2022-09-20 12:24:21.984375,-1.03
2022-09-20 12:24:22.000000,-1.37
2022-09-20 12:24:22.015625,-1.7
2022-09-20 12:24:22.031250,-2.06
2022-09-20 12:24:22.046875,-2.48
2022-09-20 12:24:22.062500,-2.92
2022-09-20 12:24:22.078125,-3.4
2022-09-20 12:24:22.093750,-3.92
2022-09-20 12:24:22.109375,-4.57
2022-09-20 12:24:22.125000,-5.41
2022-09-20 12:24:22.140625,-6.5
2022-09-20 12:24:22.156250,-7.81
2022-09-20 12:24:22.171875,-9.18
2022-09-20 12:24:22.187500,-10.38
2022-09-20 12:24:22.203125,-11.14
2022-09-20 12:24:22.218750,-11.23
2022-09-20 12:24:22.234375,-10.55
2022-09-20 12:24:22.250000,-9.16
2022-09-20 12:24:22.265625,-7.28
2022-09-20 12:24:22.281250,-5.22
2022-09-20 12:24:22.296875,-3.21
2022-09-20 12:24:22.312500,-1.4
2022-09-20 12:24:22.328125,0.19
2022-09-20 12:24:22.343750,1.59
2022-09-20 12:24:22.359375,2.82
2022-09-20 12:24:22.375000,3.83
2022-09-20 12:24:22.390625,4.56
2022-09-20 12:24:22.406250,4.97
2022-09-20 12:24:22.421875,5.14
2022-09-20 12:24:22.437500,5.2
2022-09-20 12:24:22.453125,5.34
2022-09-20 12:24:22.468750,5.69
2022-09-20 12:24:22.484375,6.34
2022-09-20 12:24:22.500000,7.25
2022-09-20 12:24:22.515625,8.38
2022-09-20 12:24:22.531250,9.65
2022-09-20 12:24:22.546875,11.01
2022-09-20 12:24:22.562500,12.41
2022-09-20 12:24:22.578125,13.81
2022-09-20 12:24:22.593750,15.17
2022-09-20 12:24:22.609375,16.51
2022-09-20 12:24:22.625000,17.84
2022-09-20 12:24:22.640625,19.21
2022-09-20 12:24:22.656250,20.63
2022-09-20 12:24:22.671875,22.03
2022-09-20 12:24:22.687500,23.24
2022-09-20 12:24:22.703125,24.02
2022-09-20 12:24:22.718750,24.11
2022-09-20 12:24:22.734375,23.3
2022-09-20 12:24:22.750000,21.51
2022-09-20 12:24:22.765625,18.77
2022-09-20 12:24:22.781250,15.28
2022-09-20 12:24:22.796875,11.29
2022-09-20 12:24:22.812500,7.13
2022-09-20 12:24:22.828125,3.11
2022-09-20 12:24:22.843750,-0.48
2022-09-20 12:24:22.859375,-3.45
2022-09-20 12:24:22.875000,-5.68
2022-09-20 12:24:22.890625,-7.13
2022-09-20 12:24:22.906250,-7.87
2022-09-20 12:24:22.921875,-8.07
2022-09-20 12:24:22.937500,-7.94
2022-09-20 12:24:22.953125,-7.68
2022-09-20 12:24:22.968750,-7.48
2022-09-20 12:24:22.984375,-7.41
2022-09-20 12:24:23.000000,-7.51
2022-09-20 12:24:23.015625,-7.73
2022-09-20 12:24:23.031250,-7.99
2022-09-20 12:24:23.046875,-8.23
2022-09-20 12:24:23.062500,-8.4
2022-09-20 12:24:23.078125,-8.5
2022-09-20 12:24:23.093750,-8.48
2022-09-20 12:24:23.109375,-8.32
2022-09-20 12:24:23.125000,-8.02
2022-09-20 12:24:23.140625,-7.57
2022-09-20 12:24:23.156250,-7.08
2022-09-20 12:24:23.171875,-6.64
2022-09-20 12:24:23.187500,-6.38
2022-09-20 12:24:23.203125,-6.33
2022-09-20 12:24:23.218750,-6.46
2022-09-20 12:24:23.234375,-6.65
2022-09-20 12:24:23.250000,-6.77
2022-09-20 12:24:23.265625,-6.72
2022-09-20 12:24:23.281250,-6.45
2022-09-20 12:24:23.296875,-6.01
2022-09-20 12:24:23.312500,-5.44
2022-09-20 12:24:23.328125,-4.82
2022-09-20 12:24:23.343750,-4.18
2022-09-20 12:24:23.359375,-3.51
2022-09-20 12:24:23.375000,-2.78
2022-09-20 12:24:23.390625,-1.98
2022-09-20 12:24:23.406250,-1.14
2022-09-20 12:24:23.421875,-0.34
2022-09-20 12:24:23.437500,0.3
2022-09-20 12:24:23.453125,0.62
2022-09-20 12:24:23.468750,0.5
2022-09-20 12:24:23.484375,-0.11
2022-09-20 12:24:23.500000,-1.15
2022-09-20 12:24:23.515625,-2.49
2022-09-20 12:24:23.531250,-3.96
2022-09-20 12:24:23.546875,-5.38
2022-09-20 12:24:23.562500,-6.61
2022-09-20 12:24:23.578125,-7.55
2022-09-20 12:24:23.593750,-8.13
2022-09-20 12:24:23.609375,-8.31
2022-09-20 12:24:23.625000,-8.1
2022-09-20 12:24:23.640625,-7.61
2022-09-20 12:24:23.656250,-7.05
2022-09-20 12:24:23.671875,-6.65
2022-09-20 12:24:23.687500,-6.63
2022-09-20 12:24:23.703125,-7.05
2022-09-20 12:24:23.718750,-7.83
2022-09-20 12:24:23.734375,-8.75
2022-09-20 12:24:23.750000,-9.54
2022-09-20 12:24:23.765625,-10.03
2022-09-20 12:24:23.781250,-10.12
2022-09-20 12:24:23.796875,-9.88
2022-09-20 12:24:23.812500,-9.43
2022-09-20 12:24:23.828125,-8.91
2022-09-20 12:24:23.843750,-8.47
2022-09-20 12:24:23.859375,-8.2
2022-09-20 12:24:23.875000,-8.16
2022-09-20 12:24:23.890625,-8.39
2022-09-20 12:24:23.906250,-8.83
2022-09-20 12:24:23.921875,-9.37
2022-09-20 12:24:23.937500,-9.88
2022-09-20 12:24:23.953125,-10.25
2022-09-20 12:24:23.968750,-10.38
2022-09-20 12:24:23.984375,-10.29
2022-09-20 12:24:24.000000,-9.97
2022-09-20 12:24:24.015625,-9.42
2022-09-20 12:24:24.031250,-8.61
2022-09-20 12:24:24.046875,-7.51
2022-09-20 12:24:24.062500,-6.18
2022-09-20 12:24:24.078125,-4.78
2022-09-20 12:24:24.093750,-3.56
2022-09-20 12:24:24.109375,-2.75
2022-09-20 12:24:24.125000,-2.44
2022-09-20 12:24:24.140625,-2.52
2022-09-20 12:24:24.156250,-2.72
2022-09-20 12:24:24.171875,-2.67
2022-09-20 12:24:24.187500,-2.06
2022-09-20 12:24:24.203125,-0.69
2022-09-20 12:24:24.218750,1.5
2022-09-20 12:24:24.234375,4.43
2022-09-20 12:24:24.250000,8.01
2022-09-20 12:24:24.265625,12.1
2022-09-20 12:24:24.281250,16.55
2022-09-20 12:24:24.296875,21.17
2022-09-20 12:24:24.312500,25.72
2022-09-20 12:24:24.328125,29.91
2022-09-20 12:24:24.343750,33.45
2022-09-20 12:24:24.359375,36.07
2022-09-20 12:24:24.375000,37.63
2022-09-20 12:24:24.390625,38.07
2022-09-20 12:24:24.406250,37.45
2022-09-20 12:24:24.421875,35.94
2022-09-20 12:24:24.437500,33.77
2022-09-20 12:24:24.453125,31.25
2022-09-20 12:24:24.468750,28.67
2022-09-20 12:24:24.484375,26.29
2022-09-20 12:24:24.500000,24.31
2022-09-20 12:24:24.515625,22.8
2022-09-20 12:24:24.531250,21.81
2022-09-20 12:24:24.546875,21.3
2022-09-20 12:24:24.562500,21.21
2022-09-20 12:24:24.578125,21.42
2022-09-20 12:24:24.593750,21.74
2022-09-20 12:24:24.609375,21.97
2022-09-20 12:24:24.625000,21.92
2022-09-20 12:24:24.640625,21.52
2022-09-20 12:24:24.656250,20.83
2022-09-20 12:24:24.671875,20.01
2022-09-20 12:24:24.687500,19.22
2022-09-20 12:24:24.703125,18.46
2022-09-20 12:24:24.718750,17.6
2022-09-20 12:24:24.734375,16.42
2022-09-20 12:24:24.750000,14.77
2022-09-20 12:24:24.765625,12.65
2022-09-20 12:24:24.781250,10.27
2022-09-20 12:24:24.796875,8.0
2022-09-20 12:24:24.812500,6.18
2022-09-20 12:24:24.828125,5.07
2022-09-20 12:24:24.843750,4.77
2022-09-20 12:24:24.859375,5.2
2022-09-20 12:24:24.875000,6.16
2022-09-20 12:24:24.890625,7.4
2022-09-20 12:24:24.906250,8.61
2022-09-20 12:24:24.921875,9.53
2022-09-20 12:24:24.937500,9.89
2022-09-20 12:24:24.953125,9.49
2022-09-20 12:24:24.968750,8.19
2022-09-20 12:24:24.984375,5.94
2022-09-20 12:24:25.000000,2.78
2022-09-20 12:24:25.015625,-1.11
2022-09-20 12:24:25.031250,-5.48
2022-09-20 12:24:25.046875,-10.01
2022-09-20 12:24:25.062500,-14.42
2022-09-20 12:24:25.078125,-18.48
2022-09-20 12:24:25.093750,-22.09
2022-09-20 12:24:25.109375,-25.2
2022-09-20 12:24:25.125000,-27.84
2022-09-20 12:24:25.140625,-30.03
2022-09-20 12:24:25.156250,-31.8
2022-09-20 12:24:25.171875,-33.18
2022-09-20 12:24:25.187500,-34.18
2022-09-20 12:24:25.203125,-34.8
2022-09-20 12:24:25.218750,-35.03
2022-09-20 12:24:25.234375,-34.91
2022-09-20 12:24:25.250000,-34.52
2022-09-20 12:24:25.265625,-34.05
2022-09-20 12:24:25.281250,-33.73
2022-09-20 12:24:25.296875,-33.74
2022-09-20 12:24:25.312500,-34.14
2022-09-20 12:24:25.328125,-34.87
2022-09-20 12:24:25.343750,-35.76
2022-09-20 12:24:25.359375,-36.59
2022-09-20 12:24:25.375000,-37.24
2022-09-20 12:24:25.390625,-37.63
2022-09-20 12:24:25.406250,-37.74
2022-09-20 12:24:25.421875,-37.46
2022-09-20 12:24:25.437500,-36.69
2022-09-20 12:24:25.453125,-35.24
2022-09-20 12:24:25.468750,-33.04
2022-09-20 12:24:25.484375,-30.13
2022-09-20 12:24:25.500000,-26.73
2022-09-20 12:24:25.515625,-23.13
2022-09-20 12:24:25.531250,-19.65
2022-09-20 12:24:25.546875,-16.51
2022-09-20 12:24:25.562500,-13.78
2022-09-20 12:24:25.578125,-11.41
2022-09-20 12:24:25.593750,-9.26
2022-09-20 12:24:25.609375,-7.2
2022-09-20 12:24:25.625000,-5.15
2022-09-20 12:24:25.640625,-3.15
2022-09-20 12:24:25.656250,-1.33
2022-09-20 12:24:25.671875,0.12
2022-09-20 12:24:25.687500,1.09
2022-09-20 12:24:25.703125,1.55
2022-09-20 12:24:25.718750,1.64
2022-09-20 12:24:25.734375,1.57
2022-09-20 12:24:25.750000,1.57
2022-09-20 12:24:25.765625,1.71
2022-09-20 12:24:25.781250,1.99
2022-09-20 12:24:25.796875,2.23
2022-09-20 12:24:25.812500,2.28
2022-09-20 12:24:25.828125,2.01
2022-09-20 12:24:25.843750,1.44
2022-09-20 12:24:25.859375,0.68
2022-09-20 12:24:25.875000,-0.15
2022-09-20 12:24:25.890625,-0.96
2022-09-20 12:24:25.906250,-1.73
2022-09-20 12:24:25.921875,-2.52
2022-09-20 12:24:25.937500,-3.4
2022-09-20 12:24:25.953125,-4.42
2022-09-20 12:24:25.968750,-5.59
2022-09-20 12:24:25.984375,-6.91
2022-09-20 12:24:26.000000,-8.35
2022-09-20 12:24:26.015625,-9.85
2022-09-20 12:24:26.031250,-11.27
2022-09-20 12:24:26.046875,-12.35
2022-09-20 12:24:26.062500,-12.79
2022-09-20 12:24:26.078125,-12.36
2022-09-20 12:24:26.093750,-11.01
2022-09-20 12:24:26.109375,-8.94
2022-09-20 12:24:26.125000,-6.48
2022-09-20 12:24:26.140625,-4.01
2022-09-20 12:24:26.156250,-1.69
2022-09-20 12:24:26.171875,0.52
2022-09-20 12:24:26.187500,2.82
2022-09-20 12:24:26.203125,5.4
2022-09-20 12:24:26.218750,8.27
2022-09-20 12:24:26.234375,11.18
2022-09-20 12:24:26.250000,13.74
2022-09-20 12:24:26.265625,15.59
2022-09-20 12:24:26.281250,16.57
2022-09-20 12:24:26.296875,16.72
2022-09-20 12:24:26.312500,16.28
2022-09-20 12:24:26.328125,15.56
2022-09-20 12:24:26.343750,14.79
2022-09-20 12:24:26.359375,14.12
2022-09-20 12:24:26.375000,13.63
2022-09-20 12:24:26.390625,13.37
2022-09-20 12:24:26.406250,13.42
2022-09-20 12:24:26.421875,13.82
2022-09-20 12:24:26.437500,14.61
2022-09-20 12:24:26.453125,15.74
2022-09-20 12:24:26.468750,17.08
2022-09-20 12:24:26.484375,18.45
2022-09-20 12:24:26.500000,19.61
2022-09-20 12:24:26.515625,20.39
2022-09-20 12:24:26.531250,20.69
2022-09-20 12:24:26.546875,20.55
2022-09-20 12:24:26.562500,20.12
2022-09-20 12:24:26.578125,19.58
2022-09-20 12:24:26.593750,19.14
2022-09-20 12:24:26.609375,18.88
2022-09-20 12:24:26.625000,18.78
2022-09-20 12:24:26.640625,18.7
2022-09-20 12:24:26.656250,18.4
2022-09-20 12:24:26.671875,17.68
2022-09-20 12:24:26.687500,16.38
2022-09-20 12:24:26.703125,14.48
2022-09-20 12:24:26.718750,12.11
2022-09-20 12:24:26.734375,9.49
2022-09-20 12:24:26.750000,6.93
2022-09-20 12:24:26.765625,4.67
2022-09-20 12:24:26.781250,2.92
2022-09-20 12:24:26.796875,1.78
2022-09-20 12:24:26.812500,1.24
2022-09-20 12:24:26.828125,1.21
2022-09-20 12:24:26.843750,1.6
2022-09-20 12:24:26.859375,2.31
2022-09-20 12:24:26.875000,3.21
2022-09-20 12:24:26.890625,4.16
2022-09-20 12:24:26.906250,4.96
2022-09-20 12:24:26.921875,5.41
2022-09-20 12:24:26.937500,5.37
2022-09-20 12:24:26.953125,4.81
2022-09-20 12:24:26.968750,3.8
2022-09-20 12:24:26.984375,2.51
2022-09-20 12:24:27.000000,1.15
2022-09-20 12:24:27.015625,-0.15
2022-09-20 12:24:27.031250,-1.34
2022-09-20 12:24:27.046875,-2.48
2022-09-20 12:24:27.062500,-3.66
2022-09-20 12:24:27.078125,-4.93
2022-09-20 12:24:27.093750,-6.3
2022-09-20 12:24:27.109375,-7.73
2022-09-20 12:24:27.125000,-9.17
2022-09-20 12:24:27.140625,-10.65
2022-09-20 12:24:27.156250,-12.28
2022-09-20 12:24:27.171875,-14.21
2022-09-20 12:24:27.187500,-16.57
2022-09-20 12:24:27.203125,-19.34
2022-09-20 12:24:27.218750,-22.37
2022-09-20 12:24:27.234375,-25.39
2022-09-20 12:24:27.250000,-28.15
2022-09-20 12:24:27.265625,-30.44
2022-09-20 12:24:27.281250,-32.24
2022-09-20 12:24:27.296875,-33.62
2022-09-20 12:24:27.312500,-34.68
2022-09-20 12:24:27.328125,-35.57
2022-09-20 12:24:27.343750,-36.39
2022-09-20 12:24:27.359375,-37.23
2022-09-20 12:24:27.375000,-38.13
2022-09-20 12:24:27.390625,-39.02
2022-09-20 12:24:27.406250,-39.77
2022-09-20 12:24:27.421875,-40.13
2022-09-20 12:24:27.437500,-39.81
2022-09-20 12:24:27.453125,-38.61
2022-09-20 12:24:27.468750,-36.42
2022-09-20 12:24:27.484375,-33.29
2022-09-20 12:24:27.500000,-29.41
2022-09-20 12:24:27.515625,-25.05
2022-09-20 12:24:27.531250,-20.51
2022-09-20 12:24:27.546875,-16.13
2022-09-20 12:24:27.562500,-12.17
2022-09-20 12:24:27.578125,-8.8
2022-09-20 12:24:27.593750,-6.08
2022-09-20 12:24:27.609375,-3.95
2022-09-20 12:24:27.625000,-2.34
2022-09-20 12:24:27.640625,-1.21
2022-09-20 12:24:27.656250,-0.58
2022-09-20 12:24:27.671875,-0.48
2022-09-20 12:24:27.687500,-0.79
2022-09-20 12:24:27.703125,-1.25
2022-09-20 12:24:27.718750,-1.44
2022-09-20 12:24:27.734375,-1.0
2022-09-20 12:24:27.750000,0.31
2022-09-20 12:24:27.765625,2.4
2022-09-20 12:24:27.781250,4.94
2022-09-20 12:24:27.796875,7.44
2022-09-20 12:24:27.812500,9.44
2022-09-20 12:24:27.828125,10.69
2022-09-20 12:24:27.843750,11.17
2022-09-20 12:24:27.859375,11.07
2022-09-20 12:24:27.875000,10.64
2022-09-20 12:24:27.890625,10.13
2022-09-20 12:24:27.906250,9.72
2022-09-20 12:24:27.921875,9.5
2022-09-20 12:24:27.937500,9.56
2022-09-20 12:24:27.953125,9.91
2022-09-20 12:24:27.968750,10.53
2022-09-20 12:24:27.984375,11.27
2022-09-20 12:24:28.000000,11.9
2022-09-20 12:24:28.015625,12.19
2022-09-20 12:24:28.031250,12.03
2022-09-20 12:24:28.046875,11.54
2022-09-20 12:24:28.062500,11.06
2022-09-20 12:24:28.078125,11.03
2022-09-20 12:24:28.093750,11.77
2022-09-20 12:24:28.109375,13.29
2022-09-20 12:24:28.125000,15.28
2022-09-20 12:24:28.140625,17.23
2022-09-20 12:24:28.156250,18.66
2022-09-20 12:24:28.171875,19.31
2022-09-20 12:24:28.187500,19.23
2022-09-20 12:24:28.203125,18.67
2022-09-20 12:24:28.218750,17.88
2022-09-20 12:24:28.234375,16.98
2022-09-20 12:24:28.250000,15.92
2022-09-20 12:24:28.265625,14.52
2022-09-20 12:24:28.281250,12.62
2022-09-20 12:24:28.296875,10.22
2022-09-20 12:24:28.312500,7.47
2022-09-20 12:24:28.328125,4.65
2022-09-20 12:24:28.343750,2.0
2022-09-20 12:24:28.359375,-0.37
2022-09-20 12:24:28.375000,-2.44
2022-09-20 12:24:28.390625,-4.26
2022-09-20 12:24:28.406250,-5.83
2022-09-20 12:24:28.421875,-7.04
2022-09-20 12:24:28.437500,-7.71
2022-09-20 12:24:28.453125,-7.65
2022-09-20 12:24:28.468750,-6.85
2022-09-20 12:24:28.484375,-5.5
2022-09-20 12:24:28.500000,-4.0
2022-09-20 12:24:28.515625,-2.79
2022-09-20 12:24:28.531250,-2.18
2022-09-20 12:24:28.546875,-2.22
2022-09-20 12:24:28.562500,-2.72
2022-09-20 12:24:28.578125,-3.33
2022-09-20 12:24:28.593750,-3.76
2022-09-20 12:24:28.609375,-3.9
2022-09-20 12:24:28.625000,-3.83
2022-09-20 12:24:28.640625,-3.71
2022-09-20 12:24:28.656250,-3.69
2022-09-20 12:24:28.671875,-3.82
2022-09-20 12:24:28.687500,-4.04
2022-09-20 12:24:28.703125,-4.26
2022-09-20 12:24:28.718750,-4.43
2022-09-20 12:24:28.734375,-4.5
2022-09-20 12:24:28.750000,-4.38
2022-09-20 12:24:28.765625,-3.9
2022-09-20 12:24:28.781250,-2.87
2022-09-20 12:24:28.796875,-1.15
2022-09-20 12:24:28.812500,1.21
2022-09-20 12:24:28.828125,3.99
2022-09-20 12:24:28.843750,6.79
2022-09-20 12:24:28.859375,9.19
2022-09-20 12:24:28.875000,10.91
2022-09-20 12:24:28.890625,11.82
2022-09-20 12:24:28.906250,12.03
2022-09-20 12:24:28.921875,11.7
2022-09-20 12:24:28.937500,11.08
2022-09-20 12:24:28.953125,10.33
2022-09-20 12:24:28.968750,9.56
2022-09-20 12:24:28.984375,8.83
2022-09-20 12:24:29.000000,8.14
2022-09-20 12:24:29.015625,7.46
2022-09-20 12:24:29.031250,6.76
2022-09-20 12:24:29.046875,6.03
2022-09-20 12:24:29.062500,5.26
2022-09-20 12:24:29.078125,4.47
2022-09-20 12:24:29.093750,3.66
2022-09-20 12:24:29.109375,2.85
2022-09-20 12:24:29.125000,2.02
2022-09-20 12:24:29.140625,1.19
2022-09-20 12:24:29.156250,0.38
2022-09-20 12:24:29.171875,-0.37
2022-09-20 12:24:29.187500,-1.09
2022-09-20 12:24:29.203125,-1.83
2022-09-20 12:24:29.218750,-2.71
2022-09-20 12:24:29.234375,-3.82
2022-09-20 12:24:29.250000,-5.17
2022-09-20 12:24:29.265625,-6.68
2022-09-20 12:24:29.281250,-8.24
2022-09-20 12:24:29.296875,-9.74
2022-09-20 12:24:29.312500,-11.18
2022-09-20 12:24:29.328125,-12.68
2022-09-20 12:24:29.343750,-14.34
2022-09-20 12:24:29.359375,-16.2
2022-09-20 12:24:29.375000,-18.11
2022-09-20 12:24:29.390625,-19.76
2022-09-20 12:24:29.406250,-20.82
2022-09-20 12:24:29.421875,-21.04
2022-09-20 12:24:29.437500,-20.31
2022-09-20 12:24:29.453125,-18.72
2022-09-20 12:24:29.468750,-16.45
2022-09-20 12:24:29.484375,-13.71
2022-09-20 12:24:29.500000,-10.71
2022-09-20 12:24:29.515625,-7.59
2022-09-20 12:24:29.531250,-4.47
2022-09-20 12:24:29.546875,-1.48
2022-09-20 12:24:29.562500,1.32
2022-09-20 12:24:29.578125,3.85
2022-09-20 12:24:29.593750,6.04
2022-09-20 12:24:29.609375,7.83
2022-09-20 12:24:29.625000,9.18
2022-09-20 12:24:29.640625,10.05
2022-09-20 12:24:29.656250,10.51
2022-09-20 12:24:29.671875,10.67
2022-09-20 12:24:29.687500,10.69
2022-09-20 12:24:29.703125,10.66
2022-09-20 12:24:29.718750,10.61
2022-09-20 12:24:29.734375,10.46
2022-09-20 12:24:29.750000,10.09
2022-09-20 12:24:29.765625,9.43
2022-09-20 12:24:29.781250,8.52
2022-09-20 12:24:29.796875,7.51
2022-09-20 12:24:29.812500,6.6
2022-09-20 12:24:29.828125,5.89
2022-09-20 12:24:29.843750,5.38
2022-09-20 12:24:29.859375,4.9
2022-09-20 12:24:29.875000,4.24
2022-09-20 12:24:29.890625,3.26
2022-09-20 12:24:29.906250,1.92
2022-09-20 12:24:29.921875,0.39
2022-09-20 12:24:29.937500,-1.13
2022-09-20 12:24:29.953125,-2.44
2022-09-20 12:24:29.968750,-3.52
2022-09-20 12:24:29.984375,-4.49
2022-09-20 12:24:30.000000,-5.6
2022-09-20 12:24:30.015625,-7.1
2022-09-20 12:24:30.031250,-9.06
2022-09-20 12:24:30.046875,-11.39
2022-09-20 12:24:30.062500,-13.83
2022-09-20 12:24:30.078125,-16.07
2022-09-20 12:24:30.093750,-17.82
2022-09-20 12:24:30.109375,-18.94
2022-09-20 12:24:30.125000,-19.35
2022-09-20 12:24:30.140625,-19.09
2022-09-20 12:24:30.156250,-18.21
2022-09-20 12:24:30.171875,-16.77
2022-09-20 12:24:30.187500,-14.84
2022-09-20 12:24:30.203125,-12.53
2022-09-20 12:24:30.218750,-9.98
2022-09-20 12:24:30.234375,-7.4
2022-09-20 12:24:30.250000,-4.98
2022-09-20 12:24:30.265625,-2.83
2022-09-20 12:24:30.281250,-0.97
2022-09-20 12:24:30.296875,0.66
2022-09-20 12:24:30.312500,2.16
2022-09-20 12:24:30.328125,3.59
2022-09-20 12:24:30.343750,4.95
2022-09-20 12:24:30.359375,6.19
2022-09-20 12:24:30.375000,7.27
2022-09-20 12:24:30.390625,8.17
2022-09-20 12:24:30.406250,8.94
2022-09-20 12:24:30.421875,9.61
2022-09-20 12:24:30.437500,10.23
2022-09-20 12:24:30.453125,10.81
2022-09-20 12:24:30.468750,11.35
2022-09-20 12:24:30.484375,11.91
2022-09-20 12:24:30.500000,12.53
2022-09-20 12:24:30.515625,13.26
2022-09-20 12:24:30.531250,14.1
2022-09-20 12:24:30.546875,14.92
2022-09-20 12:24:30.562500,15.55
2022-09-20 12:24:30.578125,15.78
2022-09-20 12:24:30.593750,15.44
2022-09-20 12:24:30.609375,14.43
2022-09-20 12:24:30.625000,12.74
2022-09-20 12:24:30.640625,10.49
2022-09-20 12:24:30.656250,7.81
2022-09-20 12:24:30.671875,4.93
2022-09-20 12:24:30.687500,2.04
2022-09-20 12:24:30.703125,-0.65
2022-09-20 12:24:30.718750,-3.03
2022-09-20 12:24:30.734375,-5.02
2022-09-20 12:24:30.750000,-6.6
2022-09-20 12:24:30.765625,-7.83
2022-09-20 12:24:30.781250,-8.77
2022-09-20 12:24:30.796875,-9.43
2022-09-20 12:24:30.812500,-9.77
2022-09-20 12:24:30.828125,-9.69
2022-09-20 12:24:30.843750,-9.11
2022-09-20 12:24:30.859375,-8.01
2022-09-20 12:24:30.875000,-6.53
2022-09-20 12:24:30.890625,-4.91
2022-09-20 12:24:30.906250,-3.47
2022-09-20 12:24:30.921875,-2.43
2022-09-20 12:24:30.937500,-1.86
2022-09-20 12:24:30.953125,-1.65
2022-09-20 12:24:30.968750,-1.65
2022-09-20 12:24:30.984375,-1.74
2022-09-20 12:24:31.000000,-1.91
2022-09-20 12:24:31.015625,-2.23
2022-09-20 12:24:31.031250,-2.8
2022-09-20 12:24:31.046875,-3.61
2022-09-20 12:24:31.062500,-4.52
2022-09-20 12:24:31.078125,-5.31
2022-09-20 12:24:31.093750,-5.75
2022-09-20 12:24:31.109375,-5.75
2022-09-20 12:24:31.125000,-5.36
2022-09-20 12:24:31.140625,-4.78
2022-09-20 12:24:31.156250,-4.25
2022-09-20 12:24:31.171875,-3.99
2022-09-20 12:24:31.187500,-4.09
2022-09-20 12:24:31.203125,-4.48
2022-09-20 12:24:31.218750,-5.04
2022-09-20 12:24:31.234375,-5.61
2022-09-20 12:24:31.250000,-6.07
2022-09-20 12:24:31.265625,-6.4
2022-09-20 12:24:31.281250,-6.69
2022-09-20 12:24:31.296875,-7.06
2022-09-20 12:24:31.312500,-7.62
2022-09-20 12:24:31.328125,-8.45
2022-09-20 12:24:31.343750,-9.54
2022-09-20 12:24:31.359375,-10.87
2022-09-20 12:24:31.375000,-12.42
2022-09-20 12:24:31.390625,-14.13
2022-09-20 12:24:31.406250,-15.87
2022-09-20 12:24:31.421875,-17.36
2022-09-20 12:24:31.437500,-18.23
2022-09-20 12:24:31.453125,-18.07
2022-09-20 12:24:31.468750,-16.67
2022-09-20 12:24:31.484375,-14.09
2022-09-20 12:24:31.500000,-10.69
2022-09-20 12:24:31.515625,-6.99
2022-09-20 12:24:31.531250,-3.45
2022-09-20 12:24:31.546875,-0.28
2022-09-20 12:24:31.562500,2.53
2022-09-20 12:24:31.578125,5.14
2022-09-20 12:24:31.593750,7.63
2022-09-20 12:24:31.609375,9.93
2022-09-20 12:24:31.625000,11.83
2022-09-20 12:24:31.640625,13.14
2022-09-20 12:24:31.656250,13.85
2022-09-20 12:24:31.671875,14.12
2022-09-20 12:24:31.687500,14.25
2022-09-20 12:24:31.703125,14.45
2022-09-20 12:24:31.718750,14.79
2022-09-20 12:24:31.734375,15.11
2022-09-20 12:24:31.750000,15.23
2022-09-20 12:24:31.765625,15.01
2022-09-20 12:24:31.781250,14.51
2022-09-20 12:24:31.796875,13.97
2022-09-20 12:24:31.812500,13.62
2022-09-20 12:24:31.828125,13.6
2022-09-20 12:24:31.843750,13.81
2022-09-20 12:24:31.859375,14.03
2022-09-20 12:24:31.875000,13.95
2022-09-20 12:24:31.890625,13.41
2022-09-20 12:24:31.906250,12.43
2022-09-20 12:24:31.921875,11.17
2022-09-20 12:24:31.937500,9.83
2022-09-20 12:24:31.953125,8.52
2022-09-20 12:24:31.968750,7.22
2022-09-20 12:24:31.984375,5.82
2022-09-20 12:24:32.000000,4.24
2022-09-20 12:24:32.015625,2.44
2022-09-20 12:24:32.031250,0.48
2022-09-20 12:24:32.046875,-1.52
2022-09-20 12:24:32.062500,-3.5
2022-09-20 12:24:32.078125,-5.38
2022-09-20 12:24:32.093750,-7.1
2022-09-20 12:24:32.109375,-8.52
2022-09-20 12:24:32.125000,-9.42
2022-09-20 12:24:32.140625,-9.56
2022-09-20 12:24:32.156250,-8.82
2022-09-20 12:24:32.171875,-7.2
2022-09-20 12:24:32.187500,-4.94
2022-09-20 12:24:32.203125,-2.35
2022-09-20 12:24:32.218750,0.27
2022-09-20 12:24:32.234375,2.74
2022-09-20 12:24:32.250000,4.99
2022-09-20 12:24:32.265625,7.0
2022-09-20 12:24:32.281250,8.75
2022-09-20 12:24:32.296875,10.22
2022-09-20 12:24:32.312500,11.37
2022-09-20 12:24:32.328125,12.2
2022-09-20 12:24:32.343750,12.8
2022-09-20 12:24:32.359375,13.26
2022-09-20 12:24:32.375000,13.66
2022-09-20 12:24:32.390625,14.01
2022-09-20 12:24:32.406250,14.25
2022-09-20 12:24:32.421875,14.31
2022-09-20 12:24:32.437500,14.12
2022-09-20 12:24:32.453125,13.7
2022-09-20 12:24:32.468750,13.09
2022-09-20 12:24:32.484375,12.39
2022-09-20 12:24:32.500000,11.7
2022-09-20 12:24:32.515625,11.06
2022-09-20 12:24:32.531250,10.49
2022-09-20 12:24:32.546875,9.95
2022-09-20 12:24:32.562500,9.34
2022-09-20 12:24:32.578125,8.59
2022-09-20 12:24:32.593750,7.62
2022-09-20 12:24:32.609375,6.43
2022-09-20 12:24:32.625000,5.1
2022-09-20 12:24:32.640625,3.75
2022-09-20 12:24:32.656250,2.5
2022-09-20 12:24:32.671875,1.44
2022-09-20 12:24:32.687500,0.56
2022-09-20 12:24:32.703125,-0.24
2022-09-20 12:24:32.718750,-1.11
2022-09-20 12:24:32.734375,-2.19
2022-09-20 12:24:32.750000,-3.54
2022-09-20 12:24:32.765625,-5.17
2022-09-20 12:24:32.781250,-6.97
2022-09-20 12:24:32.796875,-8.76
2022-09-20 12:24:32.812500,-10.29
2022-09-20 12:24:32.828125,-11.34
2022-09-20 12:24:32.843750,-11.67
2022-09-20 12:24:32.859375,-11.17
2022-09-20 12:24:32.875000,-9.83
2022-09-20 12:24:32.890625,-7.76
2022-09-20 12:24:32.906250,-5.21
2022-09-20 12:24:32.921875,-2.46
2022-09-20 12:24:32.937500,0.24
2022-09-20 12:24:32.953125,2.71
2022-09-20 12:24:32.968750,4.85
2022-09-20 12:24:32.984375,6.6
2022-09-20 12:24:33.000000,7.94
2022-09-20 12:24:33.015625,8.86
2022-09-20 12:24:33.031250,9.37
2022-09-20 12:24:33.046875,9.57
2022-09-20 12:24:33.062500,9.58
2022-09-20 12:24:33.078125,9.51
2022-09-20 12:24:33.093750,9.44
2022-09-20 12:24:33.109375,9.36
2022-09-20 12:24:33.125000,9.2
2022-09-20 12:24:33.140625,8.9
2022-09-20 12:24:33.156250,8.45
2022-09-20 12:24:33.171875,7.88
2022-09-20 12:24:33.187500,7.3
2022-09-20 12:24:33.203125,6.77
2022-09-20 12:24:33.218750,6.36
2022-09-20 12:24:33.234375,6.01
2022-09-20 12:24:33.250000,5.66
2022-09-20 12:24:33.265625,5.25
2022-09-20 12:24:33.281250,4.74
2022-09-20 12:24:33.296875,4.13
2022-09-20 12:24:33.312500,3.46
2022-09-20 12:24:33.328125,2.75
2022-09-20 12:24:33.343750,1.99
2022-09-20 12:24:33.359375,1.15
2022-09-20 12:24:33.375000,0.21
2022-09-20 12:24:33.390625,-0.82
2022-09-20 12:24:33.406250,-1.96
2022-09-20 12:24:33.421875,-3.18
2022-09-20 12:24:33.437500,-4.5
2022-09-20 12:24:33.453125,-5.94
2022-09-20 12:24:33.468750,-7.48
2022-09-20 12:24:33.484375,-9.01
2022-09-20 12:24:33.500000,-10.27
2022-09-20 12:24:33.515625,-10.94
2022-09-20 12:24:33.531250,-10.76
2022-09-20 12:24:33.546875,-9.6
2022-09-20 12:24:33.562500,-7.54
2022-09-20 12:24:33.578125,-4.89
2022-09-20 12:24:33.593750,-2.02
2022-09-20 12:24:33.609375,0.76
2022-09-20 12:24:33.625000,3.23
2022-09-20 12:24:33.640625,5.36
2022-09-20 12:24:33.656250,7.16
2022-09-20 12:24:33.671875,8.65
2022-09-20 12:24:33.687500,9.81
2022-09-20 12:24:33.703125,10.6
2022-09-20 12:24:33.718750,10.96
2022-09-20 12:24:33.734375,10.94
2022-09-20 12:24:33.750000,10.64
2022-09-20 12:24:33.765625,10.23
2022-09-20 12:24:33.781250,9.86
2022-09-20 12:24:33.796875,9.65
2022-09-20 12:24:33.812500,9.62
2022-09-20 12:24:33.828125,9.7
2022-09-20 12:24:33.843750,9.74
2022-09-20 12:24:33.859375,9.62
2022-09-20 12:24:33.875000,9.27
2022-09-20 12:24:33.890625,8.73
2022-09-20 12:24:33.906250,8.08
2022-09-20 12:24:33.921875,7.44
2022-09-20 12:24:33.937500,6.85
2022-09-20 12:24:33.953125,6.33
2022-09-20 12:24:33.968750,5.83
2022-09-20 12:24:33.984375,5.28
2022-09-20 12:24:34.000000,4.62
2022-09-20 12:24:34.015625,3.81
2022-09-20 12:24:34.031250,2.83
2022-09-20 12:24:34.046875,1.68
2022-09-20 12:24:34.062500,0.39
2022-09-20 12:24:34.078125,-1.0
2022-09-20 12:24:34.093750,-2.4
2022-09-20 12:24:34.109375,-3.76
2022-09-20 12:24:34.125000,-5.1
2022-09-20 12:24:34.140625,-6.48
2022-09-20 12:24:34.156250,-7.94
2022-09-20 12:24:34.171875,-9.49
2022-09-20 12:24:34.187500,-10.96
2022-09-20 12:24:34.203125,-12.1
2022-09-20 12:24:34.218750,-12.62
2022-09-20 12:24:34.234375,-12.33
2022-09-20 12:24:34.250000,-11.19
2022-09-20 12:24:34.265625,-9.37
2022-09-20 12:24:34.281250,-7.13
2022-09-20 12:24:34.296875,-4.74
2022-09-20 12:24:34.312500,-2.4
2022-09-20 12:24:34.328125,-0.23
2022-09-20 12:24:34.343750,1.71
2022-09-20 12:24:34.359375,3.39
2022-09-20 12:24:34.375000,4.76
2022-09-20 12:24:34.390625,5.83
2022-09-20 12:24:34.406250,6.62
2022-09-20 12:24:34.421875,7.2
2022-09-20 12:24:34.437500,7.63
2022-09-20 12:24:34.453125,7.94
2022-09-20 12:24:34.468750,8.1
2022-09-20 12:24:34.484375,8.11
2022-09-20 12:24:34.500000,7.98
2022-09-20 12:24:34.515625,7.78
2022-09-20 12:24:34.531250,7.59
2022-09-20 12:24:34.546875,7.44
2022-09-20 12:24:34.562500,7.25
2022-09-20 12:24:34.578125,6.95
2022-09-20 12:24:34.593750,6.48
2022-09-20 12:24:34.609375,5.88
2022-09-20 12:24:34.625000,5.28
2022-09-20 12:24:34.640625,4.78
2022-09-20 12:24:34.656250,4.42
2022-09-20 12:24:34.671875,4.1
2022-09-20 12:24:34.687500,3.65
2022-09-20 12:24:34.703125,2.95
2022-09-20 12:24:34.718750,1.99
2022-09-20 12:24:34.734375,0.87
2022-09-20 12:24:34.750000,-0.25
2022-09-20 12:24:34.765625,-1.26
2022-09-20 12:24:34.781250,-2.13
2022-09-20 12:24:34.796875,-2.95
2022-09-20 12:24:34.812500,-3.86
2022-09-20 12:24:34.828125,-4.99
2022-09-20 12:24:34.843750,-6.39
2022-09-20 12:24:34.859375,-8.0
2022-09-20 12:24:34.875000,-9.63
2022-09-20 12:24:34.890625,-11.05
2022-09-20 12:24:34.906250,-11.98
2022-09-20 12:24:34.921875,-12.24
2022-09-20 12:24:34.937500,-11.76
2022-09-20 12:24:34.953125,-10.59
2022-09-20 12:24:34.968750,-8.89
2022-09-20 12:24:34.984375,-6.87
2022-09-20 12:24:35.000000,-4.75
2022-09-20 12:24:35.015625,-2.7
2022-09-20 12:24:35.031250,-0.85
2022-09-20 12:24:35.046875,0.72
2022-09-20 12:24:35.062500,1.94
2022-09-20 12:24:35.078125,2.78
2022-09-20 12:24:35.093750,3.28
2022-09-20 12:24:35.109375,3.48
2022-09-20 12:24:35.125000,3.5
2022-09-20 12:24:35.140625,3.41
2022-09-20 12:24:35.156250,3.32
2022-09-20 12:24:35.171875,3.26
2022-09-20 12:24:35.187500,3.22
2022-09-20 12:24:35.203125,3.19
2022-09-20 12:24:35.218750,3.11
2022-09-20 12:24:35.234375,2.94
2022-09-20 12:24:35.250000,2.64
2022-09-20 12:24:35.265625,2.23
2022-09-20 12:24:35.281250,1.72
2022-09-20 12:24:35.296875,1.17
2022-09-20 12:24:35.312500,0.62
2022-09-20 12:24:35.328125,0.12
2022-09-20 12:24:35.343750,-0.33
2022-09-20 12:24:35.359375,-0.78
2022-09-20 12:24:35.375000,-1.31
2022-09-20 12:24:35.390625,-1.99
2022-09-20 12:24:35.406250,-2.84
2022-09-20 12:24:35.421875,-3.83
2022-09-20 12:24:35.437500,-4.9
2022-09-20 12:24:35.453125,-5.97
2022-09-20 12:24:35.468750,-7.04
2022-09-20 12:24:35.484375,-8.18
2022-09-20 12:24:35.500000,-9.47
2022-09-20 12:24:35.515625,-10.98
2022-09-20 12:24:35.531250,-12.69
2022-09-20 12:24:35.546875,-14.48
2022-09-20 12:24:35.562500,-16.19
2022-09-20 12:24:35.578125,-17.67
2022-09-20 12:24:35.593750,-18.83
2022-09-20 12:24:35.609375,-19.61
2022-09-20 12:24:35.625000,-19.97
2022-09-20 12:24:35.640625,-19.83
2022-09-20 12:24:35.656250,-19.13
2022-09-20 12:24:35.671875,-17.82
2022-09-20 12:24:35.687500,-15.93
2022-09-20 12:24:35.703125,-13.57
2022-09-20 12:24:35.718750,-10.95
2022-09-20 12:24:35.734375,-8.24
2022-09-20 12:24:35.750000,-5.63
2022-09-20 12:24:35.765625,-3.24
2022-09-20 12:24:35.781250,-1.15
2022-09-20 12:24:35.796875,0.61
2022-09-20 12:24:35.812500,2.01
2022-09-20 12:24:35.828125,3.1
2022-09-20 12:24:35.843750,3.94
2022-09-20 12:24:35.859375,4.63
2022-09-20 12:24:35.875000,5.27
2022-09-20 12:24:35.890625,5.92
2022-09-20 12:24:35.906250,6.58
2022-09-20 12:24:35.921875,7.15
2022-09-20 12:24:35.937500,7.51
2022-09-20 12:24:35.953125,7.59
2022-09-20 12:24:35.968750,7.36
2022-09-20 12:24:35.984375,6.88
2022-09-20 12:24:36.000000,6.29
2022-09-20 12:24:36.015625,5.72
2022-09-20 12:24:36.031250,5.27
2022-09-20 12:24:36.046875,4.97
2022-09-20 12:24:36.062500,4.76
2022-09-20 12:24:36.078125,4.5
2022-09-20 12:24:36.093750,4.04
2022-09-20 12:24:36.109375,3.25
2022-09-20 12:24:36.125000,2.11
2022-09-20 12:24:36.140625,0.69
2022-09-20 12:24:36.156250,-0.87
2022-09-20 12:24:36.171875,-2.47
2022-09-20 12:24:36.187500,-4.03
2022-09-20 12:24:36.203125,-5.56
2022-09-20 12:24:36.218750,-7.11
2022-09-20 12:24:36.234375,-8.68
2022-09-20 12:24:36.250000,-10.19
2022-09-20 12:24:36.265625,-11.46
2022-09-20 12:24:36.281250,-12.26
2022-09-20 12:24:36.296875,-12.41
2022-09-20 12:24:36.312500,-11.83
2022-09-20 12:24:36.328125,-10.52
2022-09-20 12:24:36.343750,-8.58
2022-09-20 12:24:36.359375,-6.14
2022-09-20 12:24:36.375000,-3.35
2022-09-20 12:24:36.390625,-0.41
2022-09-20 12:24:36.406250,2.46
2022-09-20 12:24:36.421875,5.05
2022-09-20 12:24:36.437500,7.18
2022-09-20 12:24:36.453125,8.77
2022-09-20 12:24:36.468750,9.85
2022-09-20 12:24:36.484375,10.52
2022-09-20 12:24:36.500000,10.94
2022-09-20 12:24:36.515625,11.22
2022-09-20 12:24:36.531250,11.43
2022-09-20 12:24:36.546875,11.61
2022-09-20 12:24:36.562500,11.76
2022-09-20 12:24:36.578125,11.88
2022-09-20 12:24:36.593750,11.96
2022-09-20 12:24:36.609375,11.98
2022-09-20 12:24:36.625000,11.89
2022-09-20 12:24:36.640625,11.63
2022-09-20 12:24:36.656250,11.14
2022-09-20 12:24:36.671875,10.46
2022-09-20 12:24:36.687500,9.67
2022-09-20 12:24:36.703125,8.87
2022-09-20 12:24:36.718750,8.12
2022-09-20 12:24:36.734375,7.37
2022-09-20 12:24:36.750000,6.51
2022-09-20 12:24:36.765625,5.41
2022-09-20 12:24:36.781250,3.98
2022-09-20 12:24:36.796875,2.27
2022-09-20 12:24:36.812500,0.42
2022-09-20 12:24:36.828125,-1.37
2022-09-20 12:24:36.843750,-2.96
2022-09-20 12:24:36.859375,-4.32
2022-09-20 12:24:36.875000,-5.52
2022-09-20 12:24:36.890625,-6.75
2022-09-20 12:24:36.906250,-8.2
2022-09-20 12:24:36.921875,-9.98
2022-09-20 12:24:36.937500,-12.08
2022-09-20 12:24:36.953125,-14.24
2022-09-20 12:24:36.968750,-16.09
2022-09-20 12:24:36.984375,-17.23
2022-09-20 12:24:37.000000,-17.34
2022-09-20 12:24:37.015625,-16.32
2022-09-20 12:24:37.031250,-14.32
2022-09-20 12:24:37.046875,-11.66
2022-09-20 12:24:37.062500,-8.67
2022-09-20 12:24:37.078125,-5.61
2022-09-20 12:24:37.093750,-2.61
2022-09-20 12:24:37.109375,0.28
2022-09-20 12:24:37.125000,3.02
2022-09-20 12:24:37.140625,5.5
2022-09-20 12:24:37.156250,7.61
2022-09-20 12:24:37.171875,9.24
2022-09-20 12:24:37.187500,10.39
2022-09-20 12:24:37.203125,11.17
2022-09-20 12:24:37.218750,11.7
2022-09-20 12:24:37.234375,12.11
2022-09-20 12:24:37.250000,12.43
2022-09-20 12:24:37.265625,12.64
2022-09-20 12:24:37.281250,12.71
2022-09-20 12:24:37.296875,12.63
2022-09-20 12:24:37.312500,12.41
2022-09-20 12:24:37.328125,12.09
2022-09-20 12:24:37.343750,11.69
2022-09-20 12:24:37.359375,11.22
2022-09-20 12:24:37.375000,10.66
2022-09-20 12:24:37.390625,10.0
2022-09-20 12:24:37.406250,9.23
2022-09-20 12:24:37.421875,8.34
2022-09-20 12:24:37.437500,7.27
2022-09-20 12:24:37.453125,6.03
2022-09-20 12:24:37.468750,4.62
2022-09-20 12:24:37.484375,3.12
2022-09-20 12:24:37.500000,1.62
2022-09-20 12:24:37.515625,0.2
2022-09-20 12:24:37.531250,-1.11
2022-09-20 12:24:37.546875,-2.35
2022-09-20 12:24:37.562500,-3.65
2022-09-20 12:24:37.578125,-5.16
2022-09-20 12:24:37.593750,-6.96
2022-09-20 12:24:37.609375,-9.04
2022-09-20 12:24:37.625000,-11.21
2022-09-20 12:24:37.640625,-13.15
2022-09-20 12:24:37.656250,-14.49
2022-09-20 12:24:37.671875,-14.95
2022-09-20 12:24:37.687500,-14.44
2022-09-20 12:24:37.703125,-13.04
2022-09-20 12:24:37.718750,-11.01
2022-09-20 12:24:37.734375,-8.65
2022-09-20 12:24:37.750000,-6.17
2022-09-20 12:24:37.765625,-3.67
2022-09-20 12:24:37.781250,-1.15
2022-09-20 12:24:37.796875,1.37
2022-09-20 12:24:37.812500,3.84
2022-09-20 12:24:37.828125,6.09
2022-09-20 12:24:37.843750,7.98
2022-09-20 12:24:37.859375,9.39
2022-09-20 12:24:37.875000,10.36
2022-09-20 12:24:37.890625,11.0
2022-09-20 12:24:37.906250,11.43
2022-09-20 12:24:37.921875,11.74
2022-09-20 12:24:37.937500,11.91
2022-09-20 12:24:37.953125,11.89
2022-09-20 12:24:37.968750,11.63
2022-09-20 12:24:37.984375,11.13
2022-09-20 12:24:38.000000,10.48
2022-09-20 12:24:38.015625,9.78
2022-09-20 12:24:38.031250,9.12
2022-09-20 12:24:38.046875,8.49
2022-09-20 12:24:38.062500,7.84
2022-09-20 12:24:38.078125,7.12
2022-09-20 12:24:38.093750,6.29
2022-09-20 12:24:38.109375,5.34
2022-09-20 12:24:38.125000,4.26
2022-09-20 12:24:38.140625,3.06
2022-09-20 12:24:38.156250,1.73
2022-09-20 12:24:38.171875,0.29
2022-09-20 12:24:38.187500,-1.22
2022-09-20 12:24:38.203125,-2.71
2022-09-20 12:24:38.218750,-4.07
2022-09-20 12:24:38.234375,-5.25
2022-09-20 12:24:38.250000,-6.3
2022-09-20 12:24:38.265625,-7.33
2022-09-20 12:24:38.281250,-8.49
2022-09-20 12:24:38.296875,-9.89
2022-09-20 12:24:38.312500,-11.53
2022-09-20 12:24:38.328125,-13.25
2022-09-20 12:24:38.343750,-14.74
2022-09-20 12:24:38.359375,-15.61
2022-09-20 12:24:38.375000,-15.57
2022-09-20 12:24:38.390625,-14.48
2022-09-20 12:24:38.406250,-12.46
2022-09-20 12:24:38.421875,-9.82
2022-09-20 12:24:38.437500,-6.92
2022-09-20 12:24:38.453125,-4.05
2022-09-20 12:24:38.468750,-1.36
2022-09-20 12:24:38.484375,1.14
2022-09-20 12:24:38.500000,3.46
2022-09-20 12:24:38.515625,5.57
2022-09-20 12:24:38.531250,7.41
2022-09-20 12:24:38.546875,8.89
2022-09-20 12:24:38.562500,9.95
2022-09-20 12:24:38.578125,10.64
2022-09-20 12:24:38.593750,11.02
2022-09-20 12:24:38.609375,11.15
2022-09-20 12:24:38.625000,11.06
2022-09-20 12:24:38.640625,10.73
2022-09-20 12:24:38.656250,10.22
2022-09-20 12:24:38.671875,9.6
2022-09-20 12:24:38.687500,9.01
2022-09-20 12:24:38.703125,8.58
2022-09-20 12:24:38.718750,8.33
2022-09-20 12:24:38.734375,8.22
2022-09-20 12:24:38.750000,8.15
2022-09-20 12:24:38.765625,7.99
2022-09-20 12:24:38.781250,7.67
2022-09-20 12:24:38.796875,7.15
2022-09-20 12:24:38.812500,6.42
2022-09-20 12:24:38.828125,5.5
2022-09-20 12:24:38.843750,4.39
2022-09-20 12:24:38.859375,3.13
2022-09-20 12:24:38.875000,1.79
2022-09-20 12:24:38.890625,0.46
2022-09-20 12:24:38.906250,-0.78
2022-09-20 12:24:38.921875,-1.89
2022-09-20 12:24:38.937500,-2.91
2022-09-20 12:24:38.953125,-3.89
2022-09-20 12:24:38.968750,-4.91
2022-09-20 12:24:38.984375,-5.96
2022-09-20 12:24:39.000000,-6.95
2022-09-20 12:24:39.015625,-7.73
2022-09-20 12:24:39.031250,-8.15
2022-09-20 12:24:39.046875,-8.1
2022-09-20 12:24:39.062500,-7.57
2022-09-20 12:24:39.078125,-6.62
2022-09-20 12:24:39.093750,-5.34
2022-09-20 12:24:39.109375,-3.85
2022-09-20 12:24:39.125000,-2.23
2022-09-20 12:24:39.140625,-0.56
2022-09-20 12:24:39.156250,1.05
2022-09-20 12:24:39.171875,2.48
2022-09-20 12:24:39.187500,3.66
2022-09-20 12:24:39.203125,4.54
2022-09-20 12:24:39.218750,5.12
2022-09-20 12:24:39.234375,5.47
2022-09-20 12:24:39.250000,5.65
2022-09-20 12:24:39.265625,5.7
2022-09-20 12:24:39.281250,5.65
2022-09-20 12:24:39.296875,5.51
2022-09-20 12:24:39.312500,5.31
2022-09-20 12:24:39.328125,5.1
2022-09-20 12:24:39.343750,4.94
2022-09-20 12:24:39.359375,4.86
2022-09-20 12:24:39.375000,4.84
2022-09-20 12:24:39.390625,4.81
2022-09-20 12:24:39.406250,4.7
2022-09-20 12:24:39.421875,4.43
2022-09-20 12:24:39.437500,3.98
2022-09-20 12:24:39.453125,3.33
2022-09-20 12:24:39.468750,2.55
2022-09-20 12:24:39.484375,1.68
2022-09-20 12:24:39.500000,0.79
2022-09-20 12:24:39.515625,-0.04
2022-09-20 12:24:39.531250,-0.78
2022-09-20 12:24:39.546875,-1.41
2022-09-20 12:24:39.562500,-1.96
2022-09-20 12:24:39.578125,-2.49
2022-09-20 12:24:39.593750,-3.12
2022-09-20 12:24:39.609375,-3.91
2022-09-20 12:24:39.625000,-4.92
2022-09-20 12:24:39.640625,-6.12
2022-09-20 12:24:39.656250,-7.43
2022-09-20 12:24:39.671875,-8.7
2022-09-20 12:24:39.687500,-9.78
2022-09-20 12:24:39.703125,-10.52
2022-09-20 12:24:39.718750,-10.79
2022-09-20 12:24:39.734375,-10.52
2022-09-20 12:24:39.750000,-9.7
2022-09-20 12:24:39.765625,-8.36
2022-09-20 12:24:39.781250,-6.64
2022-09-20 12:24:39.796875,-4.74
2022-09-20 12:24:39.812500,-2.85
2022-09-20 12:24:39.828125,-1.16
2022-09-20 12:24:39.843750,0.28
2022-09-20 12:24:39.859375,1.45
2022-09-20 12:24:39.875000,2.4
2022-09-20 12:24:39.890625,3.15
2022-09-20 12:24:39.906250,3.73
2022-09-20 12:24:39.921875,4.15
2022-09-20 12:24:39.937500,4.44
2022-09-20 12:24:39.953125,4.62
2022-09-20 12:24:39.968750,4.71
2022-09-20 12:24:39.984375,4.73
2022-09-20 12:24:40.000000,4.66
2022-09-20 12:24:40.015625,4.51
2022-09-20 12:24:40.031250,4.28
2022-09-20 12:24:40.046875,4.02
2022-09-20 12:24:40.062500,3.74
2022-09-20 12:24:40.078125,3.48
2022-09-20 12:24:40.093750,3.23
2022-09-20 12:24:40.109375,2.98
2022-09-20 12:24:40.125000,2.76
2022-09-20 12:24:40.140625,2.57
2022-09-20 12:24:40.156250,2.43
2022-09-20 12:24:40.171875,2.26
2022-09-20 12:24:40.187500,1.98
2022-09-20 12:24:40.203125,1.46
2022-09-20 12:24:40.218750,0.64
2022-09-20 12:24:40.234375,-0.41
2022-09-20 12:24:40.250000,-1.56
2022-09-20 12:24:40.265625,-2.63
2022-09-20 12:24:40.281250,-3.52
2022-09-20 12:24:40.296875,-4.22
2022-09-20 12:24:40.312500,-4.84
2022-09-20 12:24:40.328125,-5.51
2022-09-20 12:24:40.343750,-6.34
2022-09-20 12:24:40.359375,-7.37
2022-09-20 12:24:40.375000,-8.54
2022-09-20 12:24:40.390625,-9.68
2022-09-20 12:24:40.406250,-10.57
2022-09-20 12:24:40.421875,-11.02
2022-09-20 12:24:40.437500,-10.89
2022-09-20 12:24:40.453125,-10.16
2022-09-20 12:24:40.468750,-8.94
2022-09-20 12:24:40.484375,-7.39
2022-09-20 12:24:40.500000,-5.67
2022-09-20 12:24:40.515625,-3.92
2022-09-20 12:24:40.531250,-2.21
2022-09-20 12:24:40.546875,-0.58
2022-09-20 12:24:40.562500,0.88
2022-09-20 12:24:40.578125,2.08
2022-09-20 12:24:40.593750,2.97
2022-09-20 12:24:40.609375,3.55
2022-09-20 12:24:40.625000,3.9
2022-09-20 12:24:40.640625,4.15
2022-09-20 12:24:40.656250,4.41
2022-09-20 12:24:40.671875,4.69
2022-09-20 12:24:40.687500,4.96
2022-09-20 12:24:40.703125,5.13
2022-09-20 12:24:40.718750,5.13
2022-09-20 12:24:40.734375,4.96
2022-09-20 12:24:40.750000,4.65
2022-09-20 12:24:40.765625,4.27
2022-09-20 12:24:40.781250,3.91
2022-09-20 12:24:40.796875,3.62
2022-09-20 12:24:40.812500,3.43
2022-09-20 12:24:40.828125,3.35
2022-09-20 12:24:40.843750,3.29
2022-09-20 12:24:40.859375,3.16
2022-09-20 12:24:40.875000,2.81
2022-09-20 12:24:40.890625,2.17
2022-09-20 12:24:40.906250,1.27
2022-09-20 12:24:40.921875,0.23
2022-09-20 12:24:40.937500,-0.81
2022-09-20 12:24:40.953125,-1.71
2022-09-20 12:24:40.968750,-2.44
2022-09-20 12:24:40.984375,-3.05
2022-09-20 12:24:41.000000,-3.65
2022-09-20 12:24:41.015625,-4.33
2022-09-20 12:24:41.031250,-5.16
2022-09-20 12:24:41.046875,-6.2
2022-09-20 12:24:41.062500,-7.43
2022-09-20 12:24:41.078125,-8.84
2022-09-20 12:24:41.093750,-10.31
2022-09-20 12:24:41.109375,-11.67
2022-09-20 12:24:41.125000,-12.66
2022-09-20 12:24:41.140625,-13.01
2022-09-20 12:24:41.156250,-12.54
2022-09-20 12:24:41.171875,-11.25
2022-09-20 12:24:41.187500,-9.35
2022-09-20 12:24:41.203125,-7.15
2022-09-20 12:24:41.218750,-4.97
2022-09-20 12:24:41.234375,-3.0
2022-09-20 12:24:41.250000,-1.33
2022-09-20 12:24:41.265625,0.07
2022-09-20 12:24:41.281250,1.24
