1663555632.00
64.000000
-0.00
-0.00
-0.00
-0.00
-0.00
-0.00
-0.00
-0.00
-0.00
-0.00
0.00
0.01
0.01
-0.00
-0.03
-0.05
-0.05
0.00
0.13
0.36
0.66
1.01
1.37
1.72
2.06
2.40
2.79
3.24
3.80
4.42
5.06
5.66
6.20
6.68
7.15
7.68
8.31
9.14
10.09
11.04
11.88
12.56
13.14
13.76
14.65
15.96
17.91
20.32
22.90
25.38
27.58
29.57
31.68
34.32
37.81
42.54
48.15
54.10
59.83
64.97
69.59
74.15
79.35
85.70
93.76
102.99
112.62
121.76
129.81
136.80
143.32
150.68
157.59
166.32
177.50
191.25
206.39
219.99
227.68
224.78
207.89
176.13
131.90
79.07
22.03
-35.98
-93.43
-150.12
-206.24
-261.54
-315.19
-365.64
-411.88
-453.10
-488.69
-517.83
-539.26
-551.41
-552.61
-541.76
-518.49
-483.75
-439.45
-388.12
-332.53
-275.24
-218.30
-163.22
-110.99
-62.18
-17.33
23.12
58.67
88.83
113.24
131.80
144.84
153.07
157.58
159.42
159.48
158.26
155.84
152.03
146.60
139.36
130.20
119.14
106.55
93.53
82.07
74.69
73.58
79.52
91.22
105.53
118.56
127.11
129.75
126.98
120.51
112.13
103.03
93.60
83.92
74.34
65.36
57.61
51.46
46.77
42.93
39.08
34.60
29.38
23.84
18.71
14.67
12.08
10.76
10.12
9.43
8.18
6.28
4.12
2.29
1.39
1.63
2.79
4.30
5.50
5.89
5.32
3.95
2.12
0.17
-1.58
-2.93
-3.71
-3.83
-3.34
-2.48
-1.62
-1.21
-1.48
-2.39
-3.60
-4.68
-5.27
-5.30
-4.94
-4.50
-4.21
-4.15
-4.23
-4.31
-4.29
-4.18
-4.05
-3.97
-3.95
-3.95
-3.88
-3.75
-3.57
-3.41
-3.32
-3.28
-3.23
-3.10
-2.87
-2.59
-2.38
-2.34
-2.50
-2.79
-3.00
-2.88
-2.24
-0.98
0.83
3.02
5.35
7.57
9.46
10.89
11.81
12.28
12.38
12.24
11.95
11.56
11.05
10.36
9.45
8.32
7.01
5.56
4.05
2.40
0.58
-1.39
-3.44
-5.42
-7.15
-8.55
-9.59
-10.34
-10.93
-11.46
-11.95
-12.36
-12.59
-12.54
-12.19
-11.55
-10.75
-9.92
-9.18
-8.61
-8.18
-7.87
-7.64
-7.45
-7.30
-7.17
-6.95
-6.50
-5.68
-4.38
-2.61
-0.47
1.88
4.23
6.37
8.15
9.39
10.03
10.05
9.50
8.49
7.18
5.74
4.34
3.11
2.17
1.54
1.20
1.04
0.95
0.86
0.76
0.69
0.73
0.88
1.10
1.30
1.36
1.25
0.97
0.56
0.08
-0.43
-0.95
-1.52
-2.17
-2.93
-3.78
-4.69
-5.60
-6.47
-7.30
-8.09
-8.85
-9.55
-10.20
-10.86
-11.66
-12.78
-14.27
-16.02
-17.62
-18.55
-18.31
-16.64
-13.63
-9.68
-5.31
-1.00
2.99
6.55
9.64
12.23
14.26
15.67
16.41
16.55
16.23
15.61
14.84
14.02
13.19
12.37
11.58
10.85
10.20
9.70
9.34
9.13
9.03
8.95
8.77
8.37
7.63
6.55
5.20
3.74
2.37
1.20
0.25
-0.57
-1.42
-2.42
-3.58
-4.88
-6.22
-7.58
-8.93
-10.30
-11.69
-13.09
-14.51
-15.98
-17.60
-19.43
-21.41
-23.35
-24.90
-25.63
-25.24
-23.59
-20.76
-17.04
-12.81
-8.45
-4.27
-0.47
2.82
5.51
7.50
8.71
9.14
8.88
8.16
7.33
6.76
6.73
7.35
8.55
10.12
11.88
13.69
15.44
17.05
18.37
19.19
19.33
18.69
17.34
15.52
13.54
11.63
9.90
8.29
6.69
4.98
3.11
1.12
-0.88
-2.78
-4.48
-5.93
-7.12
-8.09
-8.94
-9.84
-10.99
-12.50
-14.33
-16.24
-17.82
-18.65
-18.39
-16.92
-14.36
-11.03
-7.32
-3.59
-0.11
2.99
5.64
7.83
9.52
10.68
11.28
11.37
11.02
10.41
9.72
9.11
8.68
8.46
8.42
8.49
8.59
8.63
8.55
8.32
7.93
7.39
6.71
5.86
4.86
3.71
2.50
1.32
0.26
-0.66
-1.50
-2.35
-3.30
-4.38
-5.55
-6.74
-7.90
-9.05
-10.24
-11.55
-13.04
-14.75
-16.69
-18.79
-20.88
-22.68
-23.78
-23.77
-22.39
-19.62
-15.74
-11.22
-6.57
-2.19
1.69
5.01
7.81
10.11
11.93
13.25
14.07
14.41
14.37
14.07
13.67
13.28
12.99
12.79
12.62
12.41
12.15
11.85
11.56
11.28
10.93
10.36
9.46
8.25
6.84
5.44
4.24
3.34
2.68
2.12
1.49
0.67
-0.42
-1.75
-3.25
-4.84
-6.45
-8.03
-9.54
-10.94
-12.20
-13.39
-14.62
-16.08
-17.93
-20.19
-22.61
-24.70
-25.85
-25.51
-23.46
-19.85
-15.20
-10.20
-5.45
-1.35
1.99
4.66
6.83
8.64
10.13
11.27
12.01
12.36
12.36
12.13
11.79
11.44
11.16
10.95
10.82
10.71
10.57
10.36
10.03
9.58
8.99
8.28
7.46
6.55
5.63
4.75
3.94
3.16
2.29
1.17
-0.23
-1.83
-3.42
-4.79
-5.81
-6.53
-7.10
-7.74
-8.61
-9.79
-11.28
-13.06
-15.08
-17.20
-19.17
-20.54
-20.86
-19.76
-17.15
-13.29
-8.70
-3.99
0.34
4.01
7.02
9.48
11.54
13.21
14.41
15.06
15.11
14.67
13.95
13.20
12.58
12.16
11.89
11.66
11.40
11.10
10.80
10.51
10.26
9.96
9.53
8.89
8.00
6.92
5.71
4.50
3.35
2.28
1.27
0.23
-0.90
-2.15
-3.53
-4.98
-6.40
-7.74
-8.96
-10.08
-11.23
-12.52
-14.12
-16.10
-18.41
-20.81
-22.88
-24.18
-24.28
-22.99
-20.37
-16.68
-12.35
-7.82
-3.44
0.55
4.04
6.98
9.36
11.23
12.62
13.61
14.24
14.54
14.50
14.13
13.50
12.76
12.07
11.58
11.35
11.35
11.42
11.40
11.20
10.80
10.28
9.69
9.06
8.36
7.53
6.59
5.59
4.64
3.83
3.12
2.39
1.49
0.28
-1.23
-2.94
-4.69
-6.31
-7.75
-9.03
-10.23
-11.50
-12.92
-14.55
-16.39
-18.34
-20.23
-21.79
-22.72
-22.75
-21.70
-19.59
-16.53
-12.81
-8.72
-4.56
-0.59
3.02
6.16
8.82
11.00
12.78
14.18
15.24
15.93
16.21
16.09
15.65
15.06
14.46
13.93
13.45
12.95
12.34
11.65
10.96
10.40
10.01
9.73
9.38
8.78
7.83
6.57
5.15
3.76
2.55
1.52
0.57
-0.46
-1.65
-3.01
-4.47
-5.89
-7.19
-8.35
-9.41
-10.43
-11.45
-12.47
-13.56
-14.82
-16.36
-18.26
-20.43
-22.57
-24.24
-24.92
-24.25
-22.10
-18.65
-14.31
-9.63
-5.08
-0.99
2.51
5.47
7.94
9.95
11.44
12.30
12.50
12.15
11.45
10.69
10.10
9.75
9.60
9.53
9.46
9.37
9.34
9.42
9.59
9.76
9.72
9.29
8.36
6.99
5.38
3.82
2.55
1.64
0.98
0.30
-0.69
-2.17
-4.09
-6.15
-8.00
-9.37
-10.26
-10.94
-11.85
-13.40
-15.65
-18.32
-20.72
-22.06
-21.70
-19.41
-15.45
-10.48
-5.32
-0.65
3.15
6.00
8.10
9.84
11.72
14.30
18.02
22.94
28.58
33.92
37.77
39.36
38.73
36.84
35.08
34.62
35.87
38.38
41.13
43.16
43.88
43.18
41.13
37.70
32.61
25.46
16.04
4.63
-7.99
-20.65
-32.17
-41.74
-49.08
-54.41
-58.27
-61.10
-63.07
-63.94
-63.31
-60.80
-56.32
-50.13
-42.71
-34.57
-26.04
-17.25
-8.12
1.43
11.33
21.26
30.61
38.61
44.38
47.13
46.32
41.84
34.09
24.02
13.02
2.63
-5.81
-11.43
-14.08
-14.22
-12.72
-10.42
-7.86
-5.15
-2.03
1.82
6.53
11.93
17.57
22.94
27.64
31.46
34.34
36.23
37.00
36.44
34.29
30.41
24.81
17.74
9.66
1.25
-6.76
-13.61
-18.77
-21.93
-23.08
-22.49
-20.53
-17.66
-14.28
-10.75
-7.33
-4.23
-1.60
0.48
1.98
2.91
3.31
3.26
2.78
1.95
0.81
-0.56
-2.02
-3.44
-4.64
-5.45
-5.69
-5.24
-4.08
-2.34
-0.31
1.62
3.08
3.89
4.15
4.14
4.21
4.55
5.13
5.72
6.10
6.16
5.93
5.51
4.85
3.76
1.88
-1.08
-5.14
-9.95
-14.87
-19.16
-22.25
-23.90
-24.24
-23.64
-22.52
-21.23
-19.90
-18.53
-17.06
-15.43
-13.65
-11.73
-9.68
-7.51
-5.26
-2.96
-0.70
1.41
3.35
5.11
6.72
8.22
9.59
10.77
11.66
12.18
12.30
12.06
11.47
10.51
9.07
7.00
4.18
0.67
-3.29
-7.24
-10.61
-12.96
-14.04
-13.91
-12.87
-11.31
-9.60
-7.99
-6.61
-5.49
-4.63
-3.99
-3.51
-3.11
-2.68
-2.16
-1.52
-0.79
-0.03
0.69
1.30
1.76
2.00
2.03
1.84
1.51
1.10
0.69
0.32
-0.03
-0.45
-1.03
-1.88
-3.05
-4.56
-6.32
-8.23
-10.21
-12.24
-14.37
-16.71
-19.34
-22.20
-25.06
-27.64
-29.70
-31.15
-32.13
-32.88
-33.66
-34.57
-35.57
-36.53
-37.28
-37.71
-37.72
-37.25
-36.26
-34.76
-32.82
-30.61
-28.37
-26.37
-24.88
-24.10
-24.14
-24.99
-26.56
-28.66
-31.12
-33.73
-36.27
-38.41
-39.69
-39.56
-37.53
-33.35
-27.15
-19.43
-10.95
-2.46
5.37
12.13
17.63
21.82
24.73
26.44
27.03
26.68
25.68
24.60
24.20
25.33
28.55
33.88
40.55
47.23
52.36
54.74
53.83
49.92
43.90
36.89
30.08
24.54
21.25
21.00
24.19
30.44
38.50
46.39
51.98
53.65
50.85
44.19
35.10
25.30
16.25
8.91
3.71
0.71
-0.28
0.37
2.10
4.28
6.28
7.58
7.94
7.28
5.72
3.48
0.87
-1.68
-3.63
-4.35
-3.32
-0.34
4.33
10.00
15.73
20.60
24.06
25.97
26.54
26.11
24.92
23.01
20.27
16.61
12.10
7.07
2.06
-2.27
-5.25
-6.32
-5.12
-1.68
3.46
9.24
14.32
17.41
17.77
15.35
10.77
4.97
-1.25
-7.50
-13.74
-19.93
-25.69
-30.15
-32.15
-30.87
-26.20
-19.07
-11.05
-3.79
1.64
5.06
7.00
8.24
9.29
10.23
10.79
10.80
10.34
9.83
9.65
9.91
10.27
10.12
8.90
6.50
3.23
-0.28
-3.46
-6.00
-7.99
-9.73
-11.55
-13.64
-15.99
-18.45
-20.85
-23.05
-24.96
-26.53
-27.76
-28.73
-29.61
-30.60
-31.90
-33.59
-35.58
-37.63
-39.45
-40.77
-41.43
-41.42
-40.83
-39.85
-38.73
-37.71
-36.96
-36.53
-36.31
-35.96
-35.00
-32.93
-29.36
-24.13
-17.38
-9.56
-1.27
6.87
14.35
20.89
26.40
30.86
34.30
36.69
38.07
38.52
38.27
37.62
36.81
36.01
35.21
34.32
33.25
31.95
30.46
28.84
27.14
25.37
23.55
21.69
19.86
18.10
16.44
14.93
13.56
12.35
11.27
10.27
9.24
8.08
6.70
5.12
3.42
1.71
0.09
-1.44
-2.91
-4.40
-5.97
-7.62
-9.34
-11.10
-12.91
-14.79
-16.73
-18.63
-20.31
-21.45
-21.74
-20.98
-19.17
-16.52
-13.39
-10.06
-6.74
-3.44
-0.16
3.07
6.06
8.58
10.47
11.72
12.49
13.01
13.49
14.01
14.50
14.85
14.99
14.90
14.64
14.30
13.95
13.61
13.27
12.88
12.42
11.87
11.23
10.52
9.76
9.05
8.51
8.27
8.39
8.80
9.28
9.58
9.46
8.83
7.75
6.38
4.89
3.46
2.20
1.22
0.54
0.16
-0.01
-0.10
-0.24
-0.47
-0.75
-0.98
-1.11
-1.14
-1.11
-1.07
-1.03
-0.94
-0.78
-0.58
-0.40
-0.37
-0.54
-0.90
-1.37
-1.78
-1.97
-1.84
-1.38
-0.72
-0.04
0.45
0.63
0.52
0.27
0.09
0.11
0.35
0.67
0.88
0.82
0.49
-0.00
-0.47
-0.77
-0.92
-1.01
-1.17
-1.50
-1.94
-2.34
-2.54
-2.44
-2.06
-1.52
-0.96
-0.41
0.16
0.84
1.66
2.59
3.49
4.26
4.83
5.25
5.61
5.99
6.41
6.81
7.09
7.25
7.30
7.34
7.41
7.54
7.66
7.70
7.58
7.27
6.83
6.31
5.79
5.25
4.60
3.72
2.54
1.11
-0.40
-1.77
-2.81
-3.47
-3.84
-4.11
-4.44
-4.89
-5.44
-6.00
-6.51
-6.95
-7.33
-7.65
-7.92
-8.12
-8.24
-8.30
-8.31
-8.30
-8.28
-8.25
-8.21
-8.13
-7.96
-7.62
-7.07
-6.30
-5.40
-4.53
-3.84
-3.40
-3.20
-3.16
-3.20
-3.28
-3.38
-3.43
-3.40
-3.18
-2.75
-2.14
-1.48
-0.94
-0.63
-0.58
-0.73
-0.91
-0.98
-0.83
-0.49
-0.08
0.20
0.19
-0.19
-0.83
-1.53
-2.04
-2.19
-1.99
-1.57
-1.16
-0.91
-0.89
-1.04
-1.23
-1.32
-1.21
-0.92
-0.50
-0.07
0.24
0.39
0.36
0.22
0.06
-0.06
-0.14
-0.21
-0.33
-0.52
-0.76
-1.00
-1.19
-1.30
-1.32
-1.28
-1.23
-1.17
-1.12
-1.07
-1.06
-1.11
-1.25
-1.49
-1.76
-2.02
-2.17
-2.22
-2.21
-2.26
-2.44
-2.70
-2.93
-2.98
-2.75
-2.30
-1.82
-1.50
-1.42
-1.56
-1.73
-1.80
-1.67
-1.41
-1.11
-0.86
-0.70
-0.58
-0.45
-0.27
-0.05
0.16
0.30
0.34
0.26
0.10
-0.13
-0.38
-0.63
-0.84
-0.96
-0.96
-0.78
-0.44
-0.02
0.34
0.48
0.33
-0.14
-0.80
-1.46
-1.93
-2.10
-1.93
-1.49
-0.94
-0.43
-0.12
-0.06
-0.25
-0.63
-1.10
-1.55
-1.90
-2.10
-2.09
-1.90
-1.55
-1.13
-0.74
-0.51
-0.49
-0.67
-0.99
-1.32
-1.53
-1.53
-1.32
-0.97
-0.60
-0.33
-0.19
-0.16
-0.16
-0.14
-0.06
0.02
0.03
-0.04
-0.15
-0.24
-0.22
-0.10
0.05
0.12
0.03
-0.22
-0.55
-0.86
-1.01
-0.94
-0.66
-0.27
0.11
0.38
0.46
0.36
0.13
-0.13
-0.36
-0.50
-0.53
-0.46
-0.33
-0.20
-0.14
-0.23
-0.49
-0.85
-1.17
-1.30
-1.15
-0.75
-0.26
0.08
0.11
-0.23
-0.83
-1.48
-1.99
-2.22
-2.11
-1.71
-1.09
-0.37
0.30
0.78
0.97
0.87
0.58
0.24
-0.02
-0.12
-0.05
0.16
0.49
0.90
1.35
1.71
1.84
1.64
1.09
0.33
-0.44
-0.99
-1.22
-1.15
-0.89
-0.59
-0.34
-0.16
-0.04
0.03
0.06
-0.00
-0.17
-0.41
-0.66
-0.85
-0.92
-0.90
-0.86
-0.88
-0.98
-1.14
-1.31
-1.41
-1.43
-1.38
-1.27
-1.14
-0.98
-0.80
-0.62
-0.47
-0.37
-0.36
-0.46
-0.60
-0.75
-0.82
-0.79
-0.69
-0.58
-0.55
-0.63
-0.77
-0.87
-0.83
-0.58
-0.18
0.25
0.62
0.88
1.05
1.17
1.18
1.02
0.62
0.03
-0.57
-0.92
-0.85
-0.35
0.38
1.07
1.49
1.57
1.40
1.16
0.98
0.89
0.85
0.79
0.70
0.62
0.62
0.70
0.84
0.95
0.89
0.59
0.06
-0.57
-1.11
-1.38
-1.26
-0.80
-0.14
0.48
0.87
0.94
0.73
0.37
-0.01
-0.33
-0.59
-0.83
-1.06
-1.23
-1.24
-1.01
-0.57
-0.05
0.37
0.52
0.39
0.10
-0.14
-0.14
0.15
0.67
1.28
1.81
2.20
2.44
2.54
2.53
2.43
2.26
2.04
1.82
1.61
1.43
1.23
0.98
0.63
0.15
-0.49
-1.33
-2.31
-3.36
-4.28
-4.91
-5.18
-5.12
-4.91
-4.75
-4.76
-4.92
-5.13
-5.25
-5.21
-5.02
-4.78
-4.57
-4.47
-4.45
-4.49
-4.54
-4.62
-4.76
-4.96
-5.22
-5.47
-5.62
-5.58
-5.29
-4.75
-4.04
-3.23
-2.38
-1.56
-0.80
-0.14
0.35
0.68
0.87
1.03
1.28
1.69
2.28
2.97
3.64
4.19
4.57
4.78
4.83
4.76
4.59
4.42
4.30
4.30
4.41
4.55
4.60
4.48
4.17
3.72
3.20
2.67
2.15
1.65
1.25
1.01
0.95
1.00
1.01
0.82
0.34
-0.37
-1.21
-2.03
-2.73
-3.27
-3.65
-3.88
-3.96
-3.90
-3.71
-3.40
-3.00
-2.45
-1.73
-0.80
0.29
1.42
2.45
3.28
3.87
4.24
4.44
4.51
4.51
4.45
4.37
4.29
4.24
4.24
4.29
4.36
4.37
4.27
4.03
3.66
3.22
2.75
2.33
1.99
1.72
1.49
1.28
1.04
0.76
0.43
0.10
-0.20
-0.41
-0.48
-0.44
-0.35
-0.34
-0.48
-0.80
-1.26
-1.85
-2.54
-3.32
-4.18
-5.06
-5.82
-6.30
-6.33
-5.87
-5.00
-3.91
-2.83
-1.93
-1.27
-0.76
-0.23
0.45
1.28
2.18
2.95
3.46
3.71
3.83
4.01
4.33
4.75
5.07
5.10
4.75
4.14
3.52
3.12
3.07
3.25
3.47
3.49
3.21
2.69
2.09
1.57
1.21
0.98
0.78
0.50
0.09
-0.39
-0.84
-1.13
-1.24
-1.21
-1.18
-1.26
-1.51
-1.91
-2.41
-2.95
-3.57
-4.30
-5.16
-6.04
-6.76
-7.11
-6.97
-6.36
-5.42
-4.36
-3.34
-2.38
-1.47
-0.52
0.50
1.55
2.51
3.27
3.72
3.89
3.84
3.74
3.72
3.85
4.13
4.46
4.73
4.82
4.69
4.37
3.92
3.45
3.04
2.78
2.65
2.62
2.64
2.63
2.55
2.38
2.12
1.78
1.35
0.85
0.27
-0.35
-0.95
-1.44
-1.75
-1.86
-1.84
-1.80
-1.87
-2.16
-2.70
-3.48
-4.41
-5.37
-6.19
-6.72
-6.84
-6.51
-5.74
-4.64
-3.31
-1.89
-0.51
0.72
1.71
2.40
2.76
2.87
2.84
2.79
2.82
2.93
3.09
3.24
3.32
3.34
3.36
3.42
3.52
3.61
3.64
3.57
3.41
3.21
3.04
2.92
2.83
2.72
2.52
2.20
1.77
1.27
0.73
0.19
-0.34
-0.85
-1.38
-1.91
-2.46
-2.98
-3.45
-3.81
-4.05
-4.23
-4.40
-4.64
-5.00
-5.44
-5.87
-6.18
-6.25
-6.06
-5.59
-4.91
-4.07
-3.16
-2.21
-1.26
-0.32
0.58
1.43
2.16
2.71
3.06
3.21
3.25
3.28
3.37
3.52
3.66
3.74
3.75
3.74
3.79
3.93
4.08
4.15
4.02
3.70
3.26
2.85
2.54
2.32
2.11
1.83
1.43
0.97
0.52
0.16
-0.08
-0.24
-0.38
-0.53
-0.72
-0.96
-1.27
-1.71
-2.33
-3.15
-4.09
-5.02
-5.77
-6.25
-6.41
-6.29
-5.93
-5.33
-4.46
-3.31
-1.91
-0.42
0.97
2.07
2.82
3.22
3.34
3.23
2.91
2.48
2.04
1.79
1.83
2.20
2.72
3.16
3.32
3.17
2.87
2.65
2.65
2.85
3.07
3.11
2.87
2.39
1.84
1.41
1.18
1.12
1.14
1.11
1.02
0.87
0.73
0.63
0.53
0.34
-0.01
-0.56
-1.23
-1.90
-2.44
-2.80
-3.03
-3.25
-3.56
-4.02
-4.56
-5.11
-5.58
-5.93
-6.14
-6.22
-6.13
-5.80
-5.15
-4.18
-2.96
-1.65
-0.42
0.59
1.32
1.82
2.15
2.44
2.78
3.19
3.66
4.10
4.42
4.52
4.38
4.04
3.58
3.13
2.79
2.59
2.54
2.57
2.63
2.63
2.54
2.35
2.06
1.70
1.30
0.94
0.69
0.57
0.57
0.63
0.68
0.69
0.64
0.53
0.37
0.14
-0.19
-0.64
-1.16
-1.73
-2.28
-2.81
-3.34
-3.89
-4.44
-4.91
-5.20
-5.24
-5.00
-4.55
-3.98
-3.38
-2.79
-2.22
-1.62
-0.94
-0.16
0.68
1.52
2.27
2.83
3.19
3.37
3.42
3.38
3.26
3.07
2.83
2.58
2.38
2.30
2.32
2.40
2.45
2.42
2.31
2.20
2.15
2.16
2.16
2.09
1.90
1.62
1.34
1.11
0.97
0.86
0.71
0.45
0.08
-0.35
-0.79
-1.17
-1.50
-1.77
-1.99
-2.14
-2.26
-2.37
-2.56
-2.94
-3.56
-4.37
-5.23
-5.93
-6.24
-6.06
-5.44
-4.54
-3.57
-2.69
-1.92
-1.23
-0.53
0.19
0.89
1.50
1.93
2.15
2.19
2.10
1.93
1.75
1.62
1.60
1.70
1.94
2.28
2.64
2.97
3.21
3.35
3.40
3.36
3.25
3.06
2.77
2.38
1.90
1.36
0.83
0.37
0.02
-0.24
-0.44
-0.61
-0.75
-0.86
-0.92
-0.93
-0.94
-1.01
-1.17
-1.47
-1.88
-2.39
-2.93
-3.46
-3.97
-4.42
-4.80
-5.12
-5.35
-5.49
-5.55
-5.51
-5.37
-5.08
-4.59
-3.85
-2.84
-1.66
-0.45
0.58
1.30
1.73
1.96
2.19
2.52
2.96
3.39
3.66
3.69
3.50
3.19
2.85
2.53
2.20
1.86
1.51
1.22
1.06
1.06
1.18
1.27
1.21
0.93
0.46
-0.08
-0.53
-0.77
-0.79
-0.66
-0.50
-0.41
-0.42
-0.50
-0.58
-0.63
-0.68
-0.82
-1.12
-1.63
-2.31
-3.05
-3.72
-4.18
-4.40
-4.38
-4.19
-3.87
-3.43
-2.85
-2.05
-0.96
0.42
1.96
3.45
4.63
5.31
5.46
5.19
4.71
4.21
3.77
3.40
3.03
2.61
2.14
1.71
1.41
1.35
1.54
1.91
2.35
2.71
2.90
2.91
2.81
2.68
2.60
2.53
2.44
2.26
1.99
1.69
1.44
1.23
0.98
0.58
-0.05
-0.84
-1.66
-2.31
-2.69
-2.81
-2.77
-2.75
-2.93
-3.35
-4.01
-4.77
-5.48
-5.96
-6.12
-5.92
-5.39
-4.64
-3.78
-2.94
-2.19
-1.58
-1.10
-0.71
-0.32
0.11
0.61
1.15
1.65
2.04
2.29
2.40
2.43
2.44
2.44
2.45
2.48
2.52
2.60
2.73
2.88
3.04
3.15
3.16
3.02
2.69
2.17
1.53
0.87
0.34
0.02
-0.09
-0.09
-0.12
-0.30
-0.64
-1.06
-1.46
-1.80
-2.09
-2.44
-2.93
-3.57
-4.28
-4.94
-5.41
-5.66
-5.71
-5.69
-5.69
-5.75
-5.80
-5.68
-5.27
-4.51
-3.49
-2.35
-1.25
-0.35
0.34
0.82
1.17
1.46
1.74
2.04
2.37
2.67
2.86
2.84
2.55
1.97
1.20
0.33
-0.53
-1.39
-2.26
-3.19
-4.20
-5.28
-6.42
-7.56
-8.66
-9.67
-10.65
-11.68
-12.92
-14.51
-16.46
-18.68
-20.98
-23.17
-25.19
-27.16
-29.27
-31.72
-34.58
-37.83
-41.40
-45.15
-48.78
-51.88
-53.85
-54.15
-52.56
-49.32
-45.12
-40.80
-36.97
-33.71
-30.52
-26.64
-21.41
-14.59
-6.53
2.08
10.48
18.12
24.84
30.75
36.10
41.04
45.52
49.37
52.41
54.61
56.09
57.15
58.07
59.09
60.31
61.70
63.11
64.28
64.90
64.60
63.05
60.01
55.42
49.45
42.50
35.09
27.80
21.16
15.54
11.11
7.84
5.52
3.80
2.23
0.31
-2.43
-6.23
-11.01
-16.33
-21.44
-25.55
-28.06
-28.75
-27.80
-25.67
-22.89
-19.89
-16.92
-14.11
-11.52
-9.18
-7.18
-5.58
-4.43
-3.75
-3.45
-3.33
-3.17
-2.73
-1.86
-0.61
0.87
2.33
3.58
4.54
5.24
5.75
6.10
6.23
6.04
5.50
4.68
3.77
2.97
2.41
2.00
1.46
0.45
-1.32
-3.88
-7.03
-10.35
-13.45
-16.04
-18.01
-19.35
-20.02
-19.92
-18.89
-16.87
-13.99
-10.63
-7.31
-4.49
-2.44
-1.14
-0.42
-0.06
0.08
0.03
-0.25
-0.77
-1.51
-2.41
-3.35
-4.23
-4.94
-5.42
-5.62
-5.58
-5.40
-5.25
-5.29
-5.69
-6.50
-7.71
-9.21
-10.89
-12.62
-14.33
-16.03
-17.82
-19.89
-22.45
-25.62
-29.39
-33.50
-37.45
-40.54
-42.06
-41.44
-38.48
-33.39
-26.75
-19.24
-11.48
-3.85
3.52
10.56
17.11
22.82
27.15
29.59
29.83
27.86
24.00
18.70
12.52
5.96
-0.48
-6.29
-10.97
-14.12
-15.54
-15.40
-14.17
-12.50
-11.02
-10.17
-10.10
-10.73
-11.81
-13.06
-14.19
-15.02
-15.55
-15.97
-16.67
-18.02
-20.18
-22.90
-25.37
-26.47
-25.01
-20.17
-11.78
-0.41
12.74
26.18
38.53
48.85
56.76
62.37
66.02
68.04
68.62
67.77
65.53
62.03
57.61
52.72
47.83
43.22
39.00
35.17
31.65
28.41
25.44
22.71
20.20
17.85
15.66
13.65
11.90
10.46
9.30
8.31
7.35
6.24
4.92
3.31
1.42
-0.76
-3.22
-5.99
-9.06
-12.41
-15.94
-19.45
-22.55
-24.70
-25.20
-23.35
-18.61
-10.83
-0.33
12.05
25.14
37.68
48.60
57.21
63.27
66.98
68.75
69.07
68.41
67.15
65.59
63.99
62.47
61.01
59.48
57.67
55.51
53.10
50.69
48.61
47.07
46.13
45.65
45.42
45.21
44.76
43.85
42.24
39.87
36.76
33.17
29.36
25.59
22.01
18.59
15.26
11.89
8.35
4.50
0.17
-4.75
-10.23
-16.09
-22.07
-27.94
-33.57
-38.95
-44.11
-48.98
-53.34
-56.90
-59.42
-60.81
-61.11
-60.44
-58.88
-56.49
-53.44
-50.09
-47.02
-44.79
-43.67
-43.48
-43.63
-43.40
-42.30
-40.26
-37.48
-34.30
-30.99
-27.70
-24.57
-21.83
-19.80
-18.75
-18.79
-19.77
-21.39
-23.31
-25.25
-27.02
-28.46
-29.44
-29.96
-30.23
-30.66
-31.73
-33.70
-36.25
-38.48
-39.09
-37.02
-31.90
-24.48
-16.56
-10.30
-7.23
-7.41
-9.38
-10.84
-9.97
-6.46
-1.89
1.02
-0.26
-6.90
-18.20
-32.01
-45.66
-56.95
-64.66
-68.90
-71.27
-74.82
-83.65
-101.45
-129.58
-165.31
-201.56
-228.68
-237.57
-223.03
-185.45
-130.55
-67.05
-3.91
51.80
95.81
126.39
143.79
149.68
146.83
138.64
128.60
119.53
113.01
109.26
107.39
105.87
103.27
98.65
91.91
83.70
75.19
67.53
61.49
57.10
53.79
50.66
47.02
42.72
38.24
34.30
31.43
29.53
27.76
24.92
19.93
12.33
2.54
-8.27
-18.58
-26.96
-32.49
-35.02
-35.07
-33.56
-31.44
-29.32
-27.27
-24.95
-21.85
-17.67
-12.60
-7.19
-2.20
1.81
4.69
6.67
8.17
9.54
10.86
11.99
12.71
12.92
12.75
12.48
12.33
12.30
12.08
11.22
9.32
6.26
2.29
-1.97
-5.74
-8.33
-9.36
-8.84
-7.07
-4.49
-1.42
1.99
5.75
9.94
14.52
19.34
24.10
28.55
32.52
35.96
38.83
40.99
42.18
42.01
40.18
36.57
31.34
24.89
17.81
10.65
3.87
-2.24
-7.52
-11.89
-15.36
-17.93
-19.67
-20.62
-20.88
-20.46
-19.44
-17.92
-16.11
-14.28
-12.72
-11.68
-11.32
-11.68
-12.73
-14.38
-16.56
-19.21
-22.33
-25.96
-30.14
-34.78
-39.61
-44.09
-47.49
-49.11
-48.42
-45.29
-40.02
-33.28
-25.93
-18.73
-12.12
-6.00
0.12
6.86
14.66
23.49
32.88
42.15
50.79
58.63
65.78
72.38
78.28
82.95
85.62
85.53
82.20
75.60
66.05
54.17
40.79
26.84
13.22
0.60
-10.77
-21.01
-30.58
-39.85
-48.90
-57.30
-64.17
-68.53
-69.54
-66.84
-60.63
-51.71
-41.27
-30.72
-21.31
-13.83
-8.39
-4.44
-1.06
2.59
6.99
12.07
17.40
22.50
27.02
30.85
33.93
36.20
37.45
37.42
35.96
33.10
29.09
24.28
19.03
13.69
8.50
3.65
-0.68
-4.37
-7.25
-9.18
-10.07
-9.95
-9.05
-7.76
-6.57
-5.92
-6.08
-7.06
-8.58
-10.21
-11.54
-12.28
-12.38
-12.02
-11.59
-11.51
-12.16
-13.72
-16.08
-18.85
-21.42
-23.06
-23.16
-21.36
-17.67
-12.44
-6.30
0.07
6.04
11.18
15.28
18.25
20.12
20.97
20.90
20.07
18.68
16.99
15.22
13.55
12.07
10.77
9.61
8.52
7.53
6.66
5.97
5.44
4.99
4.50
3.80
2.75
1.27
-0.64
-2.84
-5.09
-7.14
-8.83
-10.22
-11.54
-13.16
-15.40
-18.33
-21.72
-25.02
-27.57
-28.72
-28.06
-25.50
-21.23
-15.70
-9.46
-3.10
2.88
8.09
12.32
15.53
17.78
19.20
19.92
20.02
19.53
18.50
17.03
15.33
13.67
12.30
11.34
10.78
10.50
10.33
10.12
9.81
9.35
8.75
8.02
7.18
6.25
5.22
4.03
2.59
0.86
-1.16
-3.32
-5.45
-7.41
-9.19
-10.90
-12.73
-14.83
-17.31
-20.16
-23.27
-26.44
-29.28
-31.26
-31.77
-30.34
-26.80
-21.37
-14.67
-7.49
-0.60
5.44
10.31
13.98
16.56
18.27
19.32
19.88
20.02
19.74
19.03
17.89
16.48
14.99
13.68
12.72
12.15
11.89
11.80
11.76
11.67
11.48
11.14
10.59
9.74
8.53
7.00
5.28
3.56
1.96
0.51
-0.89
-2.42
-4.20
-6.18
-8.22
-10.08
-11.61
-12.78
-13.77
-14.85
-16.33
-18.44
-21.23
-24.55
-28.00
-30.98
-32.77
-32.72
-30.46
-26.00
-19.86
-12.81
-5.71
0.78
6.27
10.72
14.23
16.91
18.84
20.00
20.38
20.06
19.19
18.03
16.84
15.78
14.92
14.24
13.66
13.14
12.69
12.36
12.20
12.17
12.19
12.08
11.69
10.91
9.72
8.20
6.51
4.83
3.31
2.03
0.94
-0.12
-1.33
-2.85
-4.71
-6.77
-8.81
-10.63
-12.14
-13.39
-14.57
-15.90
-17.59
-19.76
-22.44
-25.52
-28.73
-31.59
-33.42
-33.54
-31.46
-27.07
-20.77
-13.32
-5.69
1.27
7.01
11.34
14.38
16.39
17.61
18.20
18.22
17.69
16.72
15.50
14.24
13.13
12.26
11.58
11.00
10.44
9.92
9.57
9.49
9.71
10.05
10.19
9.83
8.81
7.22
5.36
3.59
2.20
1.23
0.54
-0.14
-1.03
-2.25
-3.77
-5.46
-7.14
-8.68
-9.98
-11.11
-12.21
-13.56
-15.44
-17.99
-21.03
-24.08
-26.37
-27.07
-25.58
-21.76
-15.94
-8.89
-1.57
5.14
10.63
14.68
17.42
19.16
20.29
21.03
21.47
21.53
21.11
20.20
18.86
17.24
15.49
13.70
11.89
10.02
8.13
6.29
4.64
3.28
2.20
1.30
0.39
-0.72
-2.14
-3.92
-5.99
-8.21
-10.43
-12.53
-14.42
-16.12
-17.70
-19.28
-21.01
-23.03
-25.42
-28.24
-31.43
-34.76
-37.81
-39.96
-40.56
-39.12
-35.50
-30.02
-23.33
-16.22
-9.32
-3.05
2.41
7.00
10.60
13.09
14.36
14.49
13.72
12.48
11.25
10.42
10.22
